# OpenSignals Text File Format. Version 1
# {"98:D3:91:FD:69:48": {"position": 0, "device": "bitalino_rev", "device name": "98:D3:91:FD:69:48", "device connection": "BTH98:D3:91:FD:69:48", "sampling rate": 1000, "resolution": [4, 1, 1, 1, 1, 10, 10], "firmware version": 1281, "comments": "", "keywords": "", "mode": 0, "sync interval": 2, "date": "2021-9-13", "time": "21:18:33.115", "channels": [2, 5], "sensor": ["RAW", "RAW"], "label": ["A2", "A5"], "column": ["nSeq", "I1", "I2", "O1", "O2", "A2", "A5"], "special": [{}, {}], "digital IO": [0, 0, 1, 1], "convertedValues": 0}}
# EndOfHeader
0	0	0	0	0	481	442	
1	0	0	0	0	481	442	
2	0	0	0	0	482	442	
3	0	0	0	0	482	442	
4	0	0	0	0	482	442	
5	0	0	0	0	483	441	
6	0	0	0	0	483	442	
7	0	0	0	0	483	442	
8	0	0	0	0	484	442	
9	0	0	0	0	484	442	
10	0	0	0	0	484	443	
11	0	0	0	0	484	442	
12	0	0	0	0	485	442	
13	0	0	0	0	485	441	
14	0	0	0	0	486	442	
15	0	0	0	0	486	441	
0	0	0	0	0	487	441	
1	0	0	0	0	487	441	
2	0	0	0	0	487	441	
3	0	0	0	0	487	441	
4	0	0	0	0	488	441	
5	0	0	0	0	488	441	
6	0	0	0	0	488	441	
7	0	0	0	0	487	442	
8	0	0	0	0	488	441	
9	0	0	0	0	488	442	
10	0	0	0	0	488	442	
11	0	0	0	0	488	441	
12	0	0	0	0	488	441	
13	0	0	0	0	488	441	
14	0	0	0	0	488	442	
15	0	0	0	0	488	441	
0	0	0	0	0	488	441	
1	0	0	0	0	488	441	
2	0	0	0	0	488	441	
3	0	0	0	0	489	441	
4	0	0	0	0	488	441	
5	0	0	0	0	488	440	
6	0	0	0	0	488	441	
7	0	0	0	0	488	441	
8	0	0	0	0	489	441	
9	0	0	0	0	489	441	
10	0	0	0	0	489	442	
11	0	0	0	0	489	440	
12	0	0	0	0	489	441	
13	0	0	0	0	489	441	
14	0	0	0	0	488	441	
15	0	0	0	0	487	441	
0	0	0	0	0	487	440	
1	0	0	0	0	487	441	
2	0	0	0	0	487	442	
3	0	0	0	0	487	442	
4	0	0	0	0	487	441	
5	0	0	0	0	487	441	
6	0	0	0	0	487	441	
7	0	0	0	0	488	441	
8	0	0	0	0	487	441	
9	0	0	0	0	488	441	
10	0	0	0	0	487	442	
11	0	0	0	0	487	442	
12	0	0	0	0	487	442	
13	0	0	0	0	488	442	
14	0	0	0	0	488	442	
15	0	0	0	0	488	443	
0	0	0	0	0	488	443	
1	0	0	0	0	488	442	
2	0	0	0	0	488	443	
3	0	0	0	0	488	443	
4	0	0	0	0	487	443	
5	0	0	0	0	488	443	
6	0	0	0	0	488	443	
7	0	0	0	0	487	443	
8	0	0	0	0	488	443	
9	0	0	0	0	488	443	
10	0	0	0	0	488	443	
11	0	0	0	0	488	442	
12	0	0	0	0	488	443	
13	0	0	0	0	488	442	
14	0	0	0	0	488	443	
15	0	0	0	0	488	442	
0	0	0	0	0	488	443	
1	0	0	0	0	488	442	
2	0	0	0	0	488	443	
3	0	0	0	0	489	442	
4	0	0	0	0	488	443	
5	0	0	0	0	488	443	
6	0	0	0	0	488	443	
7	0	0	0	0	488	443	
8	0	0	0	0	488	442	
9	0	0	0	0	488	443	
10	0	0	0	0	488	443	
11	0	0	0	0	488	443	
12	0	0	0	0	489	443	
13	0	0	0	0	489	443	
14	0	0	0	0	489	444	
15	0	0	0	0	490	443	
0	0	0	0	0	491	443	
1	0	0	0	0	492	442	
2	0	0	0	0	493	443	
3	0	0	0	0	493	443	
4	0	0	0	0	494	442	
5	0	0	0	0	494	443	
6	0	0	0	0	495	443	
7	0	0	0	0	495	443	
8	0	0	0	0	496	442	
9	0	0	0	0	496	442	
10	0	0	0	0	496	443	
11	0	0	0	0	497	442	
12	0	0	0	0	497	441	
13	0	0	0	0	497	442	
14	0	0	0	0	497	442	
15	0	0	0	0	497	441	
0	0	0	0	0	496	442	
1	0	0	0	0	496	442	
2	0	0	0	0	496	442	
3	0	0	0	0	496	441	
4	0	0	0	0	497	442	
5	0	0	0	0	498	441	
6	0	0	0	0	499	442	
7	0	0	0	0	499	441	
8	0	0	0	0	500	441	
9	0	0	0	0	499	441	
10	0	0	0	0	499	442	
11	0	0	0	0	499	441	
12	0	0	0	0	500	441	
13	0	0	0	0	501	441	
14	0	0	0	0	502	442	
15	0	0	0	0	502	441	
0	0	0	0	0	504	441	
1	0	0	0	0	504	440	
2	0	0	0	0	505	442	
3	0	0	0	0	505	441	
4	0	0	0	0	505	442	
5	0	0	0	0	506	441	
6	0	0	0	0	506	441	
7	0	0	0	0	507	441	
8	0	0	0	0	508	441	
9	0	0	0	0	508	441	
10	0	0	0	0	508	442	
11	0	0	0	0	509	440	
12	0	0	0	0	509	441	
13	0	0	0	0	509	441	
14	0	0	0	0	510	441	
15	0	0	0	0	511	441	
0	0	0	0	0	511	441	
1	0	0	0	0	512	441	
2	0	0	0	0	512	442	
3	0	0	0	0	512	442	
4	0	0	0	0	512	441	
5	0	0	0	0	513	441	
6	0	0	0	0	514	441	
7	0	0	0	0	515	441	
8	0	0	0	0	517	441	
9	0	0	0	0	518	441	
10	0	0	0	0	518	441	
11	0	0	0	0	519	441	
12	0	0	0	0	519	441	
13	0	0	0	0	519	441	
14	0	0	0	0	519	441	
15	0	0	0	0	520	441	
0	0	0	0	0	521	442	
1	0	0	0	0	521	441	
2	0	0	0	0	521	442	
3	0	0	0	0	521	441	
4	0	0	0	0	521	441	
5	0	0	0	0	521	441	
6	0	0	0	0	521	441	
7	0	0	0	0	521	441	
8	0	0	0	0	521	441	
9	0	0	0	0	522	441	
10	0	0	0	0	523	443	
11	0	0	0	0	523	441	
12	0	0	0	0	524	442	
13	0	0	0	0	524	441	
14	0	0	0	0	524	441	
15	0	0	0	0	525	441	
0	0	0	0	0	526	441	
1	0	0	0	0	527	440	
2	0	0	0	0	527	442	
3	0	0	0	0	527	441	
4	0	0	0	0	527	441	
5	0	0	0	0	527	442	
6	0	0	0	0	527	442	
7	0	0	0	0	527	441	
8	0	0	0	0	527	442	
9	0	0	0	0	527	442	
10	0	0	0	0	527	442	
11	0	0	0	0	527	442	
12	0	0	0	0	526	441	
13	0	0	0	0	526	441	
14	0	0	0	0	526	442	
15	0	0	0	0	526	441	
0	0	0	0	0	526	441	
1	0	0	0	0	526	441	
2	0	0	0	0	526	442	
3	0	0	0	0	527	441	
4	0	0	0	0	527	441	
5	0	0	0	0	527	442	
6	0	0	0	0	526	441	
7	0	0	0	0	526	442	
8	0	0	0	0	526	441	
9	0	0	0	0	526	441	
10	0	0	0	0	526	442	
11	0	0	0	0	526	442	
12	0	0	0	0	526	442	
13	0	0	0	0	526	442	
14	0	0	0	0	526	442	
15	0	0	0	0	526	442	
0	0	0	0	0	526	442	
1	0	0	0	0	526	441	
2	0	0	0	0	526	443	
3	0	0	0	0	525	442	
4	0	0	0	0	525	442	
5	0	0	0	0	524	442	
6	0	0	0	0	524	442	
7	0	0	0	0	524	443	
8	0	0	0	0	524	442	
9	0	0	0	0	524	442	
10	0	0	0	0	524	442	
11	0	0	0	0	524	442	
12	0	0	0	0	525	441	
13	0	0	0	0	524	441	
14	0	0	0	0	525	442	
15	0	0	0	0	524	442	
0	0	0	0	0	524	441	
1	0	0	0	0	524	442	
2	0	0	0	0	523	443	
3	0	0	0	0	523	441	
4	0	0	0	0	522	443	
5	0	0	0	0	521	442	
6	0	0	0	0	521	442	
7	0	0	0	0	520	442	
8	0	0	0	0	520	443	
9	0	0	0	0	519	442	
10	0	0	0	0	519	443	
11	0	0	0	0	519	443	
12	0	0	0	0	519	443	
13	0	0	0	0	519	443	
14	0	0	0	0	518	442	
15	0	0	0	0	517	442	
0	0	0	0	0	517	443	
1	0	0	0	0	516	443	
2	0	0	0	0	516	442	
3	0	0	0	0	515	441	
4	0	0	0	0	515	441	
5	0	0	0	0	515	442	
6	0	0	0	0	515	441	
7	0	0	0	0	515	442	
8	0	0	0	0	515	442	
9	0	0	0	0	515	442	
10	0	0	0	0	516	443	
11	0	0	0	0	516	441	
12	0	0	0	0	516	441	
13	0	0	0	0	516	442	
14	0	0	0	0	515	442	
15	0	0	0	0	515	442	
0	0	0	0	0	515	441	
1	0	0	0	0	514	442	
2	0	0	0	0	514	442	
3	0	0	0	0	514	442	
4	0	0	0	0	514	442	
5	0	0	0	0	514	442	
6	0	0	0	0	514	442	
7	0	0	0	0	514	442	
8	0	0	0	0	514	443	
9	0	0	0	0	514	442	
10	0	0	0	0	514	443	
11	0	0	0	0	514	441	
12	0	0	0	0	513	442	
13	0	0	0	0	513	442	
14	0	0	0	0	514	442	
15	0	0	0	0	514	442	
0	0	0	0	0	514	442	
1	0	0	0	0	513	441	
2	0	0	0	0	512	443	
3	0	0	0	0	512	441	
4	0	0	0	0	512	442	
5	0	0	0	0	512	442	
6	0	0	0	0	511	441	
7	0	0	0	0	511	442	
8	0	0	0	0	511	442	
9	0	0	0	0	512	442	
10	0	0	0	0	512	442	
11	0	0	0	0	513	442	
12	0	0	0	0	513	441	
13	0	0	0	0	514	442	
14	0	0	0	0	514	442	
15	0	0	0	0	515	441	
0	0	0	0	0	515	441	
1	0	0	0	0	515	441	
2	0	0	0	0	515	442	
3	0	0	0	0	516	441	
4	0	0	0	0	517	442	
5	0	0	0	0	517	441	
6	0	0	0	0	517	442	
7	0	0	0	0	518	441	
8	0	0	0	0	519	440	
9	0	0	0	0	519	441	
10	0	0	0	0	518	441	
11	0	0	0	0	518	441	
12	0	0	0	0	518	442	
13	0	0	0	0	517	442	
14	0	0	0	0	516	441	
15	0	0	0	0	515	441	
0	0	0	0	0	514	441	
1	0	0	0	0	515	441	
2	0	0	0	0	515	442	
3	0	0	0	0	515	441	
4	0	0	0	0	515	441	
5	0	0	0	0	515	442	
6	0	0	0	0	515	442	
7	0	0	0	0	514	441	
8	0	0	0	0	515	441	
9	0	0	0	0	515	441	
10	0	0	0	0	515	443	
11	0	0	0	0	516	442	
12	0	0	0	0	516	442	
13	0	0	0	0	516	441	
14	0	0	0	0	516	442	
15	0	0	0	0	518	442	
0	0	0	0	0	518	441	
1	0	0	0	0	518	442	
2	0	0	0	0	518	442	
3	0	0	0	0	518	441	
4	0	0	0	0	518	442	
5	0	0	0	0	519	442	
6	0	0	0	0	518	442	
7	0	0	0	0	518	442	
8	0	0	0	0	518	442	
9	0	0	0	0	518	442	
10	0	0	0	0	518	442	
11	0	0	0	0	518	442	
12	0	0	0	0	519	441	
13	0	0	0	0	519	441	
14	0	0	0	0	519	442	
15	0	0	0	0	519	442	
0	0	0	0	0	518	442	
1	0	0	0	0	517	442	
2	0	0	0	0	517	442	
3	0	0	0	0	517	441	
4	0	0	0	0	518	441	
5	0	0	0	0	518	441	
6	0	0	0	0	519	441	
7	0	0	0	0	520	441	
8	0	0	0	0	521	441	
9	0	0	0	0	522	441	
10	0	0	0	0	523	441	
11	0	0	0	0	523	440	
12	0	0	0	0	524	440	
13	0	0	0	0	525	440	
14	0	0	0	0	525	442	
15	0	0	0	0	524	440	
0	0	0	0	0	524	440	
1	0	0	0	0	523	441	
2	0	0	0	0	523	441	
3	0	0	0	0	523	441	
4	0	0	0	0	523	441	
5	0	0	0	0	522	441	
6	0	0	0	0	521	441	
7	0	0	0	0	521	441	
8	0	0	0	0	522	441	
9	0	0	0	0	521	441	
10	0	0	0	0	521	443	
11	0	0	0	0	521	442	
12	0	0	0	0	521	442	
13	0	0	0	0	522	441	
14	0	0	0	0	521	442	
15	0	0	0	0	522	442	
0	0	0	0	0	522	441	
1	0	0	0	0	522	442	
2	0	0	0	0	523	443	
3	0	0	0	0	522	443	
4	0	0	0	0	522	441	
5	0	0	0	0	521	442	
6	0	0	0	0	521	442	
7	0	0	0	0	523	443	
8	0	0	0	0	523	442	
9	0	0	0	0	523	442	
10	0	0	0	0	523	443	
11	0	0	0	0	523	442	
12	0	0	0	0	523	442	
13	0	0	0	0	522	442	
14	0	0	0	0	521	441	
15	0	0	0	0	520	441	
0	0	0	0	0	519	441	
1	0	0	0	0	519	441	
2	0	0	0	0	518	442	
3	0	0	0	0	518	441	
4	0	0	0	0	518	441	
5	0	0	0	0	518	441	
6	0	0	0	0	518	442	
7	0	0	0	0	518	442	
8	0	0	0	0	518	441	
9	0	0	0	0	518	441	
10	0	0	0	0	518	442	
11	0	0	0	0	518	441	
12	0	0	0	0	519	441	
13	0	0	0	0	519	441	
14	0	0	0	0	519	441	
15	0	0	0	0	518	441	
0	0	0	0	0	519	442	
1	0	0	0	0	519	441	
2	0	0	0	0	519	442	
3	0	0	0	0	519	442	
4	0	0	0	0	519	442	
5	0	0	0	0	519	443	
6	0	0	0	0	518	443	
7	0	0	0	0	518	443	
8	0	0	0	0	517	442	
9	0	0	0	0	518	442	
10	0	0	0	0	517	443	
11	0	0	0	0	517	442	
12	0	0	0	0	516	442	
13	0	0	0	0	516	443	
14	0	0	0	0	515	441	
15	0	0	0	0	515	442	
0	0	0	0	0	516	442	
1	0	0	0	0	516	442	
2	0	0	0	0	515	442	
3	0	0	0	0	515	441	
4	0	0	0	0	516	442	
5	0	0	0	0	516	441	
6	0	0	0	0	516	442	
7	0	0	0	0	516	442	
8	0	0	0	0	516	442	
9	0	0	0	0	516	442	
10	0	0	0	0	515	443	
11	0	0	0	0	516	442	
12	0	0	0	0	516	442	
13	0	0	0	0	517	442	
14	0	0	0	0	518	442	
15	0	0	0	0	518	442	
0	0	0	0	0	518	442	
1	0	0	0	0	518	441	
2	0	0	0	0	518	442	
3	0	0	0	0	518	441	
4	0	0	0	0	518	442	
5	0	0	0	0	518	442	
6	0	0	0	0	518	442	
7	0	0	0	0	517	441	
8	0	0	0	0	517	441	
9	0	0	0	0	516	441	
10	0	0	0	0	516	442	
11	0	0	0	0	515	441	
12	0	0	0	0	515	442	
13	0	0	0	0	515	442	
14	0	0	0	0	515	442	
15	0	0	0	0	515	442	
0	0	0	0	0	515	441	
1	0	0	0	0	515	441	
2	0	0	0	0	515	443	
3	0	0	0	0	515	442	
4	0	0	0	0	515	442	
5	0	0	0	0	516	442	
6	0	0	0	0	515	442	
7	0	0	0	0	515	442	
8	0	0	0	0	516	442	
9	0	0	0	0	515	442	
10	0	0	0	0	515	442	
11	0	0	0	0	515	442	
12	0	0	0	0	515	441	
13	0	0	0	0	515	442	
14	0	0	0	0	515	441	
15	0	0	0	0	515	442	
0	0	0	0	0	515	442	
1	0	0	0	0	515	441	
2	0	0	0	0	515	442	
3	0	0	0	0	515	441	
4	0	0	0	0	515	441	
5	0	0	0	0	515	442	
6	0	0	0	0	515	441	
7	0	0	0	0	515	441	
8	0	0	0	0	515	441	
9	0	0	0	0	514	442	
10	0	0	0	0	514	442	
11	0	0	0	0	514	441	
12	0	0	0	0	513	442	
13	0	0	0	0	512	441	
14	0	0	0	0	513	442	
15	0	0	0	0	513	442	
0	0	0	0	0	512	441	
1	0	0	0	0	512	441	
2	0	0	0	0	511	442	
3	0	0	0	0	511	441	
4	0	0	0	0	510	441	
5	0	0	0	0	511	441	
6	0	0	0	0	511	441	
7	0	0	0	0	510	441	
8	0	0	0	0	510	441	
9	0	0	0	0	510	441	
10	0	0	0	0	510	442	
11	0	0	0	0	510	442	
12	0	0	0	0	511	441	
13	0	0	0	0	511	441	
14	0	0	0	0	512	440	
15	0	0	0	0	512	441	
0	0	0	0	0	512	441	
1	0	0	0	0	512	441	
2	0	0	0	0	511	442	
3	0	0	0	0	511	440	
4	0	0	0	0	510	441	
5	0	0	0	0	509	441	
6	0	0	0	0	509	442	
7	0	0	0	0	509	442	
8	0	0	0	0	509	442	
9	0	0	0	0	510	442	
10	0	0	0	0	511	442	
11	0	0	0	0	511	442	
12	0	0	0	0	512	441	
13	0	0	0	0	512	442	
14	0	0	0	0	514	442	
15	0	0	0	0	515	441	
0	0	0	0	0	516	441	
1	0	0	0	0	518	442	
2	0	0	0	0	518	442	
3	0	0	0	0	519	441	
4	0	0	0	0	520	441	
5	0	0	0	0	521	441	
6	0	0	0	0	520	441	
7	0	0	0	0	520	441	
8	0	0	0	0	519	441	
9	0	0	0	0	519	441	
10	0	0	0	0	519	442	
11	0	0	0	0	519	441	
12	0	0	0	0	519	441	
13	0	0	0	0	518	442	
14	0	0	0	0	518	441	
15	0	0	0	0	517	441	
0	0	0	0	0	518	442	
1	0	0	0	0	518	441	
2	0	0	0	0	518	443	
3	0	0	0	0	518	441	
4	0	0	0	0	518	441	
5	0	0	0	0	518	441	
6	0	0	0	0	518	442	
7	0	0	0	0	519	442	
8	0	0	0	0	519	442	
9	0	0	0	0	519	442	
10	0	0	0	0	519	443	
11	0	0	0	0	518	442	
12	0	0	0	0	518	442	
13	0	0	0	0	518	441	
14	0	0	0	0	517	442	
15	0	0	0	0	518	442	
0	0	0	0	0	518	441	
1	0	0	0	0	518	442	
2	0	0	0	0	518	443	
3	0	0	0	0	518	442	
4	0	0	0	0	518	442	
5	0	0	0	0	516	442	
6	0	0	0	0	516	443	
7	0	0	0	0	515	442	
8	0	0	0	0	515	442	
9	0	0	0	0	514	441	
10	0	0	0	0	514	443	
11	0	0	0	0	513	442	
12	0	0	0	0	513	442	
13	0	0	0	0	513	442	
14	0	0	0	0	512	443	
15	0	0	0	0	511	442	
0	0	0	0	0	511	442	
1	0	0	0	0	510	442	
2	0	0	0	0	510	443	
3	0	0	0	0	510	442	
4	0	0	0	0	509	442	
5	0	0	0	0	510	441	
6	0	0	0	0	509	442	
7	0	0	0	0	509	442	
8	0	0	0	0	508	442	
9	0	0	0	0	508	442	
10	0	0	0	0	507	443	
11	0	0	0	0	507	442	
12	0	0	0	0	506	443	
13	0	0	0	0	506	442	
14	0	0	0	0	506	442	
15	0	0	0	0	507	441	
0	0	0	0	0	507	441	
1	0	0	0	0	507	441	
2	0	0	0	0	508	442	
3	0	0	0	0	508	441	
4	0	0	0	0	509	442	
5	0	0	0	0	509	441	
6	0	0	0	0	510	442	
7	0	0	0	0	509	442	
8	0	0	0	0	509	441	
9	0	0	0	0	510	441	
10	0	0	0	0	510	442	
11	0	0	0	0	510	441	
12	0	0	0	0	510	442	
13	0	0	0	0	510	442	
14	0	0	0	0	510	442	
15	0	0	0	0	509	442	
0	0	0	0	0	509	441	
1	0	0	0	0	509	442	
2	0	0	0	0	508	442	
3	0	0	0	0	509	442	
4	0	0	0	0	509	442	
5	0	0	0	0	509	441	
6	0	0	0	0	509	442	
7	0	0	0	0	509	441	
8	0	0	0	0	509	441	
9	0	0	0	0	508	442	
10	0	0	0	0	507	443	
11	0	0	0	0	507	442	
12	0	0	0	0	506	442	
13	0	0	0	0	506	442	
14	0	0	0	0	506	442	
15	0	0	0	0	507	441	
0	0	0	0	0	507	441	
1	0	0	0	0	507	441	
2	0	0	0	0	507	443	
3	0	0	0	0	508	441	
4	0	0	0	0	508	441	
5	0	0	0	0	509	441	
6	0	0	0	0	510	441	
7	0	0	0	0	510	441	
8	0	0	0	0	510	440	
9	0	0	0	0	510	440	
10	0	0	0	0	510	441	
11	0	0	0	0	509	440	
12	0	0	0	0	509	441	
13	0	0	0	0	509	441	
14	0	0	0	0	508	440	
15	0	0	0	0	508	440	
0	0	0	0	0	507	441	
1	0	0	0	0	506	440	
2	0	0	0	0	505	441	
3	0	0	0	0	505	441	
4	0	0	0	0	505	440	
5	0	0	0	0	504	440	
6	0	0	0	0	504	441	
7	0	0	0	0	504	440	
8	0	0	0	0	504	440	
9	0	0	0	0	504	441	
10	0	0	0	0	503	441	
11	0	0	0	0	503	440	
12	0	0	0	0	502	441	
13	0	0	0	0	500	441	
14	0	0	0	0	497	441	
15	0	0	0	0	494	441	
0	0	0	0	0	489	441	
1	0	0	0	0	484	442	
2	0	0	0	0	477	442	
3	0	0	0	0	471	442	
4	0	0	0	0	463	442	
5	0	0	0	0	456	442	
6	0	0	0	0	449	442	
7	0	0	0	0	443	442	
8	0	0	0	0	439	443	
9	0	0	0	0	436	442	
10	0	0	0	0	434	443	
11	0	0	0	0	433	443	
12	0	0	0	0	432	442	
13	0	0	0	0	432	442	
14	0	0	0	0	432	442	
15	0	0	0	0	432	442	
0	0	0	0	0	434	442	
1	0	0	0	0	437	442	
2	0	0	0	0	441	443	
3	0	0	0	0	446	441	
4	0	0	0	0	453	442	
5	0	0	0	0	460	442	
6	0	0	0	0	470	443	
7	0	0	0	0	481	442	
8	0	0	0	0	494	442	
9	0	0	0	0	506	441	
10	0	0	0	0	518	443	
11	0	0	0	0	531	442	
12	0	0	0	0	543	441	
13	0	0	0	0	553	442	
14	0	0	0	0	563	442	
15	0	0	0	0	572	441	
0	0	0	0	0	580	442	
1	0	0	0	0	592	441	
2	0	0	0	0	607	441	
3	0	0	0	0	624	442	
4	0	0	0	0	641	441	
5	0	0	0	0	657	440	
6	0	0	0	0	672	441	
7	0	0	0	0	684	441	
8	0	0	0	0	693	441	
9	0	0	0	0	700	441	
10	0	0	0	0	702	442	
11	0	0	0	0	703	440	
12	0	0	0	0	701	441	
13	0	0	0	0	700	441	
14	0	0	0	0	698	441	
15	0	0	0	0	694	441	
0	0	0	0	0	688	441	
1	0	0	0	0	677	442	
2	0	0	0	0	664	441	
3	0	0	0	0	649	441	
4	0	0	0	0	632	441	
5	0	0	0	0	617	442	
6	0	0	0	0	604	442	
7	0	0	0	0	595	442	
8	0	0	0	0	588	441	
9	0	0	0	0	583	442	
10	0	0	0	0	580	443	
11	0	0	0	0	578	442	
12	0	0	0	0	577	442	
13	0	0	0	0	576	442	
14	0	0	0	0	574	442	
15	0	0	0	0	570	442	
0	0	0	0	0	565	442	
1	0	0	0	0	560	442	
2	0	0	0	0	552	443	
3	0	0	0	0	544	443	
4	0	0	0	0	536	442	
5	0	0	0	0	527	441	
6	0	0	0	0	518	443	
7	0	0	0	0	510	443	
8	0	0	0	0	503	442	
9	0	0	0	0	496	442	
10	0	0	0	0	490	442	
11	0	0	0	0	484	442	
12	0	0	0	0	479	442	
13	0	0	0	0	475	442	
14	0	0	0	0	470	442	
15	0	0	0	0	467	441	
0	0	0	0	0	465	442	
1	0	0	0	0	462	442	
2	0	0	0	0	461	444	
3	0	0	0	0	460	442	
4	0	0	0	0	459	442	
5	0	0	0	0	458	443	
6	0	0	0	0	457	442	
7	0	0	0	0	458	442	
8	0	0	0	0	458	442	
9	0	0	0	0	458	442	
10	0	0	0	0	459	443	
11	0	0	0	0	458	442	
12	0	0	0	0	458	441	
13	0	0	0	0	459	441	
14	0	0	0	0	459	441	
15	0	0	0	0	457	441	
0	0	0	0	0	458	441	
1	0	0	0	0	457	441	
2	0	0	0	0	457	441	
3	0	0	0	0	457	441	
4	0	0	0	0	458	441	
5	0	0	0	0	458	441	
6	0	0	0	0	458	441	
7	0	0	0	0	459	441	
8	0	0	0	0	460	441	
9	0	0	0	0	461	441	
10	0	0	0	0	463	441	
11	0	0	0	0	463	442	
12	0	0	0	0	465	441	
13	0	0	0	0	465	442	
14	0	0	0	0	467	441	
15	0	0	0	0	469	441	
0	0	0	0	0	470	442	
1	0	0	0	0	471	441	
2	0	0	0	0	472	442	
3	0	0	0	0	472	441	
4	0	0	0	0	472	441	
5	0	0	0	0	472	441	
6	0	0	0	0	473	442	
7	0	0	0	0	474	441	
8	0	0	0	0	474	441	
9	0	0	0	0	474	441	
10	0	0	0	0	473	441	
11	0	0	0	0	473	440	
12	0	0	0	0	473	441	
13	0	0	0	0	473	441	
14	0	0	0	0	473	441	
15	0	0	0	0	474	441	
0	0	0	0	0	474	441	
1	0	0	0	0	474	441	
2	0	0	0	0	474	441	
3	0	0	0	0	474	441	
4	0	0	0	0	475	442	
5	0	0	0	0	475	441	
6	0	0	0	0	475	442	
7	0	0	0	0	476	442	
8	0	0	0	0	476	441	
9	0	0	0	0	477	442	
10	0	0	0	0	478	442	
11	0	0	0	0	478	441	
12	0	0	0	0	479	441	
13	0	0	0	0	479	441	
14	0	0	0	0	479	442	
15	0	0	0	0	479	441	
0	0	0	0	0	480	441	
1	0	0	0	0	480	441	
2	0	0	0	0	481	442	
3	0	0	0	0	482	441	
4	0	0	0	0	483	441	
5	0	0	0	0	483	441	
6	0	0	0	0	483	441	
7	0	0	0	0	484	441	
8	0	0	0	0	484	441	
9	0	0	0	0	484	441	
10	0	0	0	0	484	442	
11	0	0	0	0	483	441	
12	0	0	0	0	483	441	
13	0	0	0	0	483	441	
14	0	0	0	0	483	442	
15	0	0	0	0	483	442	
0	0	0	0	0	483	442	
1	0	0	0	0	483	441	
2	0	0	0	0	483	442	
3	0	0	0	0	483	441	
4	0	0	0	0	484	441	
5	0	0	0	0	485	441	
6	0	0	0	0	486	442	
7	0	0	0	0	486	442	
8	0	0	0	0	486	442	
9	0	0	0	0	486	441	
10	0	0	0	0	487	442	
11	0	0	0	0	487	442	
12	0	0	0	0	487	441	
13	0	0	0	0	487	442	
14	0	0	0	0	487	441	
15	0	0	0	0	487	441	
0	0	0	0	0	487	442	
1	0	0	0	0	487	442	
2	0	0	0	0	487	442	
3	0	0	0	0	487	441	
4	0	0	0	0	487	441	
5	0	0	0	0	487	442	
6	0	0	0	0	487	441	
7	0	0	0	0	487	441	
8	0	0	0	0	487	442	
9	0	0	0	0	487	442	
10	0	0	0	0	487	442	
11	0	0	0	0	487	441	
12	0	0	0	0	487	441	
13	0	0	0	0	487	441	
14	0	0	0	0	487	442	
15	0	0	0	0	487	442	
0	0	0	0	0	487	441	
1	0	0	0	0	487	441	
2	0	0	0	0	487	442	
3	0	0	0	0	487	442	
4	0	0	0	0	487	442	
5	0	0	0	0	487	442	
6	0	0	0	0	487	442	
7	0	0	0	0	487	441	
8	0	0	0	0	488	441	
9	0	0	0	0	488	441	
10	0	0	0	0	488	442	
11	0	0	0	0	488	441	
12	0	0	0	0	488	442	
13	0	0	0	0	488	441	
14	0	0	0	0	488	441	
15	0	0	0	0	488	441	
0	0	0	0	0	487	441	
1	0	0	0	0	487	442	
2	0	0	0	0	488	443	
3	0	0	0	0	487	442	
4	0	0	0	0	488	441	
5	0	0	0	0	488	441	
6	0	0	0	0	488	441	
7	0	0	0	0	489	442	
8	0	0	0	0	489	441	
9	0	0	0	0	489	441	
10	0	0	0	0	489	442	
11	0	0	0	0	488	441	
12	0	0	0	0	488	442	
13	0	0	0	0	488	442	
14	0	0	0	0	488	442	
15	0	0	0	0	488	442	
0	0	0	0	0	487	442	
1	0	0	0	0	487	442	
2	0	0	0	0	487	442	
3	0	0	0	0	487	442	
4	0	0	0	0	487	441	
5	0	0	0	0	487	441	
6	0	0	0	0	487	441	
7	0	0	0	0	486	441	
8	0	0	0	0	487	441	
9	0	0	0	0	487	441	
10	0	0	0	0	488	442	
11	0	0	0	0	488	442	
12	0	0	0	0	488	442	
13	0	0	0	0	489	441	
14	0	0	0	0	489	441	
15	0	0	0	0	489	441	
0	0	0	0	0	490	441	
1	0	0	0	0	491	441	
2	0	0	0	0	491	441	
3	0	0	0	0	491	441	
4	0	0	0	0	491	441	
5	0	0	0	0	492	441	
6	0	0	0	0	491	441	
7	0	0	0	0	492	441	
8	0	0	0	0	492	441	
9	0	0	0	0	493	442	
10	0	0	0	0	494	442	
11	0	0	0	0	494	441	
12	0	0	0	0	494	440	
13	0	0	0	0	494	440	
14	0	0	0	0	494	441	
15	0	0	0	0	494	440	
0	0	0	0	0	495	440	
1	0	0	0	0	495	441	
2	0	0	0	0	495	441	
3	0	0	0	0	495	440	
4	0	0	0	0	496	441	
5	0	0	0	0	497	441	
6	0	0	0	0	497	441	
7	0	0	0	0	498	441	
8	0	0	0	0	498	441	
9	0	0	0	0	499	442	
10	0	0	0	0	499	443	
11	0	0	0	0	500	441	
12	0	0	0	0	500	442	
13	0	0	0	0	501	442	
14	0	0	0	0	501	443	
15	0	0	0	0	502	442	
0	0	0	0	0	503	443	
1	0	0	0	0	503	442	
2	0	0	0	0	503	443	
3	0	0	0	0	504	442	
4	0	0	0	0	504	442	
5	0	0	0	0	504	441	
6	0	0	0	0	504	442	
7	0	0	0	0	504	442	
8	0	0	0	0	503	442	
9	0	0	0	0	502	442	
10	0	0	0	0	502	443	
11	0	0	0	0	502	441	
12	0	0	0	0	503	441	
13	0	0	0	0	504	442	
14	0	0	0	0	504	442	
15	0	0	0	0	504	441	
0	0	0	0	0	505	442	
1	0	0	0	0	505	442	
2	0	0	0	0	506	443	
3	0	0	0	0	506	442	
4	0	0	0	0	507	441	
5	0	0	0	0	507	441	
6	0	0	0	0	507	442	
7	0	0	0	0	507	441	
8	0	0	0	0	507	441	
9	0	0	0	0	507	441	
10	0	0	0	0	507	442	
11	0	0	0	0	507	441	
12	0	0	0	0	508	442	
13	0	0	0	0	509	442	
14	0	0	0	0	509	441	
15	0	0	0	0	509	441	
0	0	0	0	0	510	441	
1	0	0	0	0	510	442	
2	0	0	0	0	511	442	
3	0	0	0	0	512	441	
4	0	0	0	0	513	442	
5	0	0	0	0	514	442	
6	0	0	0	0	514	442	
7	0	0	0	0	514	442	
8	0	0	0	0	514	442	
9	0	0	0	0	515	442	
10	0	0	0	0	514	442	
11	0	0	0	0	515	442	
12	0	0	0	0	515	442	
13	0	0	0	0	515	442	
14	0	0	0	0	515	442	
15	0	0	0	0	515	443	
0	0	0	0	0	515	443	
1	0	0	0	0	514	442	
2	0	0	0	0	514	443	
3	0	0	0	0	515	443	
4	0	0	0	0	514	442	
5	0	0	0	0	514	442	
6	0	0	0	0	515	443	
7	0	0	0	0	515	443	
8	0	0	0	0	515	442	
9	0	0	0	0	516	442	
10	0	0	0	0	516	443	
11	0	0	0	0	515	443	
12	0	0	0	0	516	443	
13	0	0	0	0	516	443	
14	0	0	0	0	517	443	
15	0	0	0	0	518	442	
0	0	0	0	0	518	442	
1	0	0	0	0	518	442	
2	0	0	0	0	519	443	
3	0	0	0	0	519	441	
4	0	0	0	0	520	442	
5	0	0	0	0	520	442	
6	0	0	0	0	521	442	
7	0	0	0	0	521	442	
8	0	0	0	0	521	441	
9	0	0	0	0	522	441	
10	0	0	0	0	523	442	
11	0	0	0	0	523	442	
12	0	0	0	0	523	441	
13	0	0	0	0	523	441	
14	0	0	0	0	523	441	
15	0	0	0	0	523	441	
0	0	0	0	0	523	441	
1	0	0	0	0	523	442	
2	0	0	0	0	523	442	
3	0	0	0	0	523	441	
4	0	0	0	0	523	441	
5	0	0	0	0	524	441	
6	0	0	0	0	524	442	
7	0	0	0	0	524	441	
8	0	0	0	0	525	442	
9	0	0	0	0	525	442	
10	0	0	0	0	525	442	
11	0	0	0	0	525	442	
12	0	0	0	0	526	442	
13	0	0	0	0	527	442	
14	0	0	0	0	527	442	
15	0	0	0	0	527	442	
0	0	0	0	0	527	441	
1	0	0	0	0	527	441	
2	0	0	0	0	527	442	
3	0	0	0	0	526	441	
4	0	0	0	0	524	441	
5	0	0	0	0	524	442	
6	0	0	0	0	523	441	
7	0	0	0	0	522	442	
8	0	0	0	0	522	442	
9	0	0	0	0	522	441	
10	0	0	0	0	522	442	
11	0	0	0	0	522	441	
12	0	0	0	0	522	442	
13	0	0	0	0	523	441	
14	0	0	0	0	523	442	
15	0	0	0	0	524	442	
0	0	0	0	0	524	442	
1	0	0	0	0	525	442	
2	0	0	0	0	525	442	
3	0	0	0	0	525	442	
4	0	0	0	0	524	442	
5	0	0	0	0	523	441	
6	0	0	0	0	523	442	
7	0	0	0	0	522	441	
8	0	0	0	0	521	441	
9	0	0	0	0	521	441	
10	0	0	0	0	519	441	
11	0	0	0	0	519	441	
12	0	0	0	0	519	442	
13	0	0	0	0	519	441	
14	0	0	0	0	518	442	
15	0	0	0	0	518	441	
0	0	0	0	0	517	441	
1	0	0	0	0	517	441	
2	0	0	0	0	517	442	
3	0	0	0	0	517	441	
4	0	0	0	0	517	441	
5	0	0	0	0	517	441	
6	0	0	0	0	518	441	
7	0	0	0	0	518	441	
8	0	0	0	0	518	441	
9	0	0	0	0	519	441	
10	0	0	0	0	519	442	
11	0	0	0	0	519	441	
12	0	0	0	0	519	441	
13	0	0	0	0	519	441	
14	0	0	0	0	518	441	
15	0	0	0	0	519	441	
0	0	0	0	0	519	441	
1	0	0	0	0	518	441	
2	0	0	0	0	518	441	
3	0	0	0	0	518	441	
4	0	0	0	0	518	441	
5	0	0	0	0	518	441	
6	0	0	0	0	519	442	
7	0	0	0	0	519	441	
8	0	0	0	0	519	441	
9	0	0	0	0	519	441	
10	0	0	0	0	518	441	
11	0	0	0	0	519	441	
12	0	0	0	0	518	441	
13	0	0	0	0	518	441	
14	0	0	0	0	518	441	
15	0	0	0	0	517	441	
0	0	0	0	0	516	441	
1	0	0	0	0	517	441	
2	0	0	0	0	517	442	
3	0	0	0	0	518	440	
4	0	0	0	0	518	440	
5	0	0	0	0	518	441	
6	0	0	0	0	518	441	
7	0	0	0	0	517	441	
8	0	0	0	0	517	441	
9	0	0	0	0	517	441	
10	0	0	0	0	518	442	
11	0	0	0	0	518	441	
12	0	0	0	0	517	441	
13	0	0	0	0	517	441	
14	0	0	0	0	516	442	
15	0	0	0	0	515	441	
0	0	0	0	0	515	441	
1	0	0	0	0	515	441	
2	0	0	0	0	515	441	
3	0	0	0	0	515	441	
4	0	0	0	0	515	441	
5	0	0	0	0	516	441	
6	0	0	0	0	517	441	
7	0	0	0	0	518	441	
8	0	0	0	0	519	440	
9	0	0	0	0	519	441	
10	0	0	0	0	519	441	
11	0	0	0	0	519	440	
12	0	0	0	0	519	441	
13	0	0	0	0	520	441	
14	0	0	0	0	520	441	
15	0	0	0	0	520	441	
0	0	0	0	0	520	441	
1	0	0	0	0	521	441	
2	0	0	0	0	520	443	
3	0	0	0	0	520	441	
4	0	0	0	0	521	442	
5	0	0	0	0	521	442	
6	0	0	0	0	522	442	
7	0	0	0	0	521	441	
8	0	0	0	0	521	441	
9	0	0	0	0	521	442	
10	0	0	0	0	521	443	
11	0	0	0	0	521	442	
12	0	0	0	0	521	442	
13	0	0	0	0	521	442	
14	0	0	0	0	522	442	
15	0	0	0	0	522	442	
0	0	0	0	0	523	443	
1	0	0	0	0	523	442	
2	0	0	0	0	524	443	
3	0	0	0	0	524	443	
4	0	0	0	0	525	442	
5	0	0	0	0	525	443	
6	0	0	0	0	525	443	
7	0	0	0	0	525	442	
8	0	0	0	0	525	442	
9	0	0	0	0	525	442	
10	0	0	0	0	526	443	
11	0	0	0	0	526	442	
12	0	0	0	0	526	441	
13	0	0	0	0	527	442	
14	0	0	0	0	527	442	
15	0	0	0	0	527	442	
0	0	0	0	0	527	441	
1	0	0	0	0	527	441	
2	0	0	0	0	527	443	
3	0	0	0	0	527	442	
4	0	0	0	0	527	441	
5	0	0	0	0	527	442	
6	0	0	0	0	527	442	
7	0	0	0	0	527	441	
8	0	0	0	0	527	442	
9	0	0	0	0	527	442	
10	0	0	0	0	526	442	
11	0	0	0	0	526	442	
12	0	0	0	0	526	441	
13	0	0	0	0	525	442	
14	0	0	0	0	525	442	
15	0	0	0	0	525	442	
0	0	0	0	0	524	442	
1	0	0	0	0	524	441	
2	0	0	0	0	523	442	
3	0	0	0	0	523	441	
4	0	0	0	0	524	441	
5	0	0	0	0	524	441	
6	0	0	0	0	524	442	
7	0	0	0	0	524	441	
8	0	0	0	0	524	441	
9	0	0	0	0	524	441	
10	0	0	0	0	524	443	
11	0	0	0	0	524	441	
12	0	0	0	0	524	442	
13	0	0	0	0	524	441	
14	0	0	0	0	523	442	
15	0	0	0	0	522	441	
0	0	0	0	0	522	442	
1	0	0	0	0	522	441	
2	0	0	0	0	522	442	
3	0	0	0	0	521	441	
4	0	0	0	0	521	441	
5	0	0	0	0	521	441	
6	0	0	0	0	521	441	
7	0	0	0	0	521	441	
8	0	0	0	0	521	441	
9	0	0	0	0	522	442	
10	0	0	0	0	522	443	
11	0	0	0	0	521	441	
12	0	0	0	0	521	441	
13	0	0	0	0	521	441	
14	0	0	0	0	520	441	
15	0	0	0	0	520	441	
0	0	0	0	0	519	441	
1	0	0	0	0	519	441	
2	0	0	0	0	519	442	
3	0	0	0	0	519	441	
4	0	0	0	0	519	441	
5	0	0	0	0	519	441	
6	0	0	0	0	519	442	
7	0	0	0	0	519	441	
8	0	0	0	0	520	441	
9	0	0	0	0	521	441	
10	0	0	0	0	520	441	
11	0	0	0	0	521	441	
12	0	0	0	0	521	440	
13	0	0	0	0	522	442	
14	0	0	0	0	522	442	
15	0	0	0	0	523	441	
0	0	0	0	0	523	441	
1	0	0	0	0	524	441	
2	0	0	0	0	524	442	
3	0	0	0	0	524	441	
4	0	0	0	0	524	441	
5	0	0	0	0	524	441	
6	0	0	0	0	524	442	
7	0	0	0	0	524	441	
8	0	0	0	0	524	441	
9	0	0	0	0	523	440	
10	0	0	0	0	524	442	
11	0	0	0	0	523	441	
12	0	0	0	0	524	441	
13	0	0	0	0	524	441	
14	0	0	0	0	524	441	
15	0	0	0	0	524	441	
0	0	0	0	0	523	441	
1	0	0	0	0	522	441	
2	0	0	0	0	522	441	
3	0	0	0	0	521	441	
4	0	0	0	0	521	441	
5	0	0	0	0	521	441	
6	0	0	0	0	521	442	
7	0	0	0	0	520	441	
8	0	0	0	0	519	440	
9	0	0	0	0	520	441	
10	0	0	0	0	520	442	
11	0	0	0	0	519	441	
12	0	0	0	0	520	442	
13	0	0	0	0	520	442	
14	0	0	0	0	520	442	
15	0	0	0	0	521	441	
0	0	0	0	0	522	441	
1	0	0	0	0	522	441	
2	0	0	0	0	522	441	
3	0	0	0	0	522	441	
4	0	0	0	0	523	441	
5	0	0	0	0	523	441	
6	0	0	0	0	524	441	
7	0	0	0	0	524	441	
8	0	0	0	0	524	441	
9	0	0	0	0	523	441	
10	0	0	0	0	523	442	
11	0	0	0	0	522	441	
12	0	0	0	0	522	441	
13	0	0	0	0	522	441	
14	0	0	0	0	522	441	
15	0	0	0	0	520	441	
0	0	0	0	0	520	441	
1	0	0	0	0	519	441	
2	0	0	0	0	519	441	
3	0	0	0	0	518	441	
4	0	0	0	0	517	442	
5	0	0	0	0	516	442	
6	0	0	0	0	515	442	
7	0	0	0	0	515	442	
8	0	0	0	0	515	442	
9	0	0	0	0	516	442	
10	0	0	0	0	516	443	
11	0	0	0	0	515	442	
12	0	0	0	0	515	442	
13	0	0	0	0	516	442	
14	0	0	0	0	515	442	
15	0	0	0	0	515	442	
0	0	0	0	0	515	442	
1	0	0	0	0	515	441	
2	0	0	0	0	514	442	
3	0	0	0	0	515	441	
4	0	0	0	0	515	441	
5	0	0	0	0	515	442	
6	0	0	0	0	516	442	
7	0	0	0	0	516	442	
8	0	0	0	0	517	442	
9	0	0	0	0	517	442	
10	0	0	0	0	518	443	
11	0	0	0	0	518	442	
12	0	0	0	0	517	442	
13	0	0	0	0	516	441	
14	0	0	0	0	516	441	
15	0	0	0	0	515	441	
0	0	0	0	0	515	441	
1	0	0	0	0	515	441	
2	0	0	0	0	514	442	
3	0	0	0	0	513	441	
4	0	0	0	0	513	441	
5	0	0	0	0	514	442	
6	0	0	0	0	515	441	
7	0	0	0	0	516	442	
8	0	0	0	0	517	442	
9	0	0	0	0	518	442	
10	0	0	0	0	519	442	
11	0	0	0	0	520	441	
12	0	0	0	0	521	441	
13	0	0	0	0	521	441	
14	0	0	0	0	520	442	
15	0	0	0	0	520	441	
0	0	0	0	0	519	442	
1	0	0	0	0	519	441	
2	0	0	0	0	519	442	
3	0	0	0	0	519	441	
4	0	0	0	0	518	441	
5	0	0	0	0	518	441	
6	0	0	0	0	516	442	
7	0	0	0	0	515	441	
8	0	0	0	0	515	442	
9	0	0	0	0	515	441	
10	0	0	0	0	514	442	
11	0	0	0	0	513	442	
12	0	0	0	0	513	442	
13	0	0	0	0	513	442	
14	0	0	0	0	513	442	
15	0	0	0	0	514	442	
0	0	0	0	0	514	441	
1	0	0	0	0	514	441	
2	0	0	0	0	514	442	
3	0	0	0	0	515	442	
4	0	0	0	0	515	441	
5	0	0	0	0	516	442	
6	0	0	0	0	517	441	
7	0	0	0	0	518	441	
8	0	0	0	0	519	441	
9	0	0	0	0	519	441	
10	0	0	0	0	519	442	
11	0	0	0	0	519	441	
12	0	0	0	0	519	441	
13	0	0	0	0	519	442	
14	0	0	0	0	519	441	
15	0	0	0	0	519	441	
0	0	0	0	0	519	441	
1	0	0	0	0	519	440	
2	0	0	0	0	518	442	
3	0	0	0	0	518	441	
4	0	0	0	0	517	441	
5	0	0	0	0	517	441	
6	0	0	0	0	517	441	
7	0	0	0	0	518	442	
8	0	0	0	0	519	441	
9	0	0	0	0	519	441	
10	0	0	0	0	519	441	
11	0	0	0	0	519	441	
12	0	0	0	0	520	441	
13	0	0	0	0	521	441	
14	0	0	0	0	521	442	
15	0	0	0	0	522	441	
0	0	0	0	0	522	441	
1	0	0	0	0	523	441	
2	0	0	0	0	524	441	
3	0	0	0	0	524	441	
4	0	0	0	0	525	441	
5	0	0	0	0	525	441	
6	0	0	0	0	525	441	
7	0	0	0	0	524	441	
8	0	0	0	0	524	441	
9	0	0	0	0	524	440	
10	0	0	0	0	524	441	
11	0	0	0	0	525	441	
12	0	0	0	0	525	441	
13	0	0	0	0	525	441	
14	0	0	0	0	525	441	
15	0	0	0	0	525	440	
0	0	0	0	0	525	441	
1	0	0	0	0	524	441	
2	0	0	0	0	524	441	
3	0	0	0	0	524	441	
4	0	0	0	0	523	441	
5	0	0	0	0	522	441	
6	0	0	0	0	523	441	
7	0	0	0	0	522	440	
8	0	0	0	0	522	440	
9	0	0	0	0	521	440	
10	0	0	0	0	520	442	
11	0	0	0	0	519	441	
12	0	0	0	0	519	441	
13	0	0	0	0	518	442	
14	0	0	0	0	517	442	
15	0	0	0	0	517	442	
0	0	0	0	0	516	441	
1	0	0	0	0	515	441	
2	0	0	0	0	515	442	
3	0	0	0	0	515	441	
4	0	0	0	0	515	442	
5	0	0	0	0	515	443	
6	0	0	0	0	516	442	
7	0	0	0	0	515	442	
8	0	0	0	0	515	442	
9	0	0	0	0	516	443	
10	0	0	0	0	516	442	
11	0	0	0	0	518	442	
12	0	0	0	0	518	442	
13	0	0	0	0	518	441	
14	0	0	0	0	518	442	
15	0	0	0	0	517	441	
0	0	0	0	0	517	441	
1	0	0	0	0	517	441	
2	0	0	0	0	516	441	
3	0	0	0	0	516	442	
4	0	0	0	0	515	441	
5	0	0	0	0	515	441	
6	0	0	0	0	515	441	
7	0	0	0	0	514	441	
8	0	0	0	0	514	441	
9	0	0	0	0	514	441	
10	0	0	0	0	514	442	
11	0	0	0	0	513	442	
12	0	0	0	0	513	441	
13	0	0	0	0	513	442	
14	0	0	0	0	513	442	
15	0	0	0	0	513	441	
0	0	0	0	0	513	442	
1	0	0	0	0	513	441	
2	0	0	0	0	512	443	
3	0	0	0	0	512	442	
4	0	0	0	0	511	441	
5	0	0	0	0	512	442	
6	0	0	0	0	512	443	
7	0	0	0	0	512	442	
8	0	0	0	0	512	442	
9	0	0	0	0	511	443	
10	0	0	0	0	512	443	
11	0	0	0	0	512	442	
12	0	0	0	0	512	442	
13	0	0	0	0	511	442	
14	0	0	0	0	512	442	
15	0	0	0	0	512	442	
0	0	0	0	0	512	442	
1	0	0	0	0	512	441	
2	0	0	0	0	512	442	
3	0	0	0	0	512	442	
4	0	0	0	0	513	441	
5	0	0	0	0	513	441	
6	0	0	0	0	512	442	
7	0	0	0	0	512	441	
8	0	0	0	0	512	442	
9	0	0	0	0	512	441	
10	0	0	0	0	512	441	
11	0	0	0	0	511	441	
12	0	0	0	0	510	441	
13	0	0	0	0	509	441	
14	0	0	0	0	508	441	
15	0	0	0	0	508	441	
0	0	0	0	0	507	441	
1	0	0	0	0	506	441	
2	0	0	0	0	506	441	
3	0	0	0	0	506	441	
4	0	0	0	0	505	441	
5	0	0	0	0	504	441	
6	0	0	0	0	502	441	
7	0	0	0	0	500	441	
8	0	0	0	0	498	441	
9	0	0	0	0	495	441	
10	0	0	0	0	492	442	
11	0	0	0	0	487	441	
12	0	0	0	0	481	441	
13	0	0	0	0	475	441	
14	0	0	0	0	468	441	
15	0	0	0	0	462	441	
0	0	0	0	0	455	440	
1	0	0	0	0	449	441	
2	0	0	0	0	445	442	
3	0	0	0	0	442	440	
4	0	0	0	0	440	441	
5	0	0	0	0	438	441	
6	0	0	0	0	437	441	
7	0	0	0	0	436	441	
8	0	0	0	0	436	441	
9	0	0	0	0	436	441	
10	0	0	0	0	437	441	
11	0	0	0	0	439	441	
12	0	0	0	0	442	441	
13	0	0	0	0	447	440	
14	0	0	0	0	455	441	
15	0	0	0	0	463	441	
0	0	0	0	0	472	441	
1	0	0	0	0	483	441	
2	0	0	0	0	495	442	
3	0	0	0	0	508	440	
4	0	0	0	0	520	440	
5	0	0	0	0	532	441	
6	0	0	0	0	544	441	
7	0	0	0	0	555	440	
8	0	0	0	0	565	441	
9	0	0	0	0	574	440	
10	0	0	0	0	582	441	
11	0	0	0	0	590	440	
12	0	0	0	0	600	441	
13	0	0	0	0	614	440	
14	0	0	0	0	628	441	
15	0	0	0	0	644	441	
0	0	0	0	0	659	441	
1	0	0	0	0	672	440	
2	0	0	0	0	681	442	
3	0	0	0	0	685	441	
4	0	0	0	0	687	441	
5	0	0	0	0	685	441	
6	0	0	0	0	684	441	
7	0	0	0	0	684	441	
8	0	0	0	0	683	440	
9	0	0	0	0	680	441	
10	0	0	0	0	675	441	
11	0	0	0	0	665	441	
12	0	0	0	0	652	441	
13	0	0	0	0	636	441	
14	0	0	0	0	618	442	
15	0	0	0	0	600	441	
0	0	0	0	0	585	442	
1	0	0	0	0	574	441	
2	0	0	0	0	567	442	
3	0	0	0	0	563	442	
4	0	0	0	0	562	441	
5	0	0	0	0	562	441	
6	0	0	0	0	563	441	
7	0	0	0	0	565	441	
8	0	0	0	0	568	441	
9	0	0	0	0	569	441	
10	0	0	0	0	568	442	
11	0	0	0	0	567	442	
12	0	0	0	0	563	441	
13	0	0	0	0	559	442	
14	0	0	0	0	551	442	
15	0	0	0	0	543	442	
0	0	0	0	0	535	442	
1	0	0	0	0	527	441	
2	0	0	0	0	519	443	
3	0	0	0	0	512	442	
4	0	0	0	0	505	441	
5	0	0	0	0	500	442	
6	0	0	0	0	494	442	
7	0	0	0	0	489	442	
8	0	0	0	0	485	441	
9	0	0	0	0	483	441	
10	0	0	0	0	481	443	
11	0	0	0	0	478	442	
12	0	0	0	0	476	442	
13	0	0	0	0	475	442	
14	0	0	0	0	473	442	
15	0	0	0	0	473	442	
0	0	0	0	0	472	442	
1	0	0	0	0	472	442	
2	0	0	0	0	471	442	
3	0	0	0	0	470	441	
4	0	0	0	0	470	441	
5	0	0	0	0	470	441	
6	0	0	0	0	470	442	
7	0	0	0	0	469	441	
8	0	0	0	0	470	441	
9	0	0	0	0	470	441	
10	0	0	0	0	470	442	
11	0	0	0	0	471	441	
12	0	0	0	0	472	441	
13	0	0	0	0	472	441	
14	0	0	0	0	472	441	
15	0	0	0	0	472	441	
0	0	0	0	0	472	441	
1	0	0	0	0	472	441	
2	0	0	0	0	472	442	
3	0	0	0	0	473	441	
4	0	0	0	0	473	441	
5	0	0	0	0	473	441	
6	0	0	0	0	474	442	
7	0	0	0	0	475	441	
8	0	0	0	0	475	441	
9	0	0	0	0	476	442	
10	0	0	0	0	476	443	
11	0	0	0	0	476	442	
12	0	0	0	0	475	442	
13	0	0	0	0	475	442	
14	0	0	0	0	476	442	
15	0	0	0	0	476	442	
0	0	0	0	0	476	442	
1	0	0	0	0	476	442	
2	0	0	0	0	478	443	
3	0	0	0	0	478	442	
4	0	0	0	0	478	442	
5	0	0	0	0	479	442	
6	0	0	0	0	480	442	
7	0	0	0	0	481	442	
8	0	0	0	0	481	443	
9	0	0	0	0	482	442	
10	0	0	0	0	482	443	
11	0	0	0	0	482	442	
12	0	0	0	0	482	442	
13	0	0	0	0	482	442	
14	0	0	0	0	481	442	
15	0	0	0	0	481	442	
0	0	0	0	0	481	442	
1	0	0	0	0	481	442	
2	0	0	0	0	481	442	
3	0	0	0	0	482	441	
4	0	0	0	0	482	442	
5	0	0	0	0	482	441	
6	0	0	0	0	483	442	
7	0	0	0	0	484	441	
8	0	0	0	0	484	441	
9	0	0	0	0	485	442	
10	0	0	0	0	485	442	
11	0	0	0	0	485	442	
12	0	0	0	0	485	441	
13	0	0	0	0	485	441	
14	0	0	0	0	485	441	
15	0	0	0	0	485	441	
0	0	0	0	0	485	441	
1	0	0	0	0	484	441	
2	0	0	0	0	484	442	
3	0	0	0	0	483	441	
4	0	0	0	0	484	442	
5	0	0	0	0	484	442	
6	0	0	0	0	485	442	
7	0	0	0	0	485	441	
8	0	0	0	0	487	441	
9	0	0	0	0	487	441	
10	0	0	0	0	487	442	
11	0	0	0	0	487	441	
12	0	0	0	0	487	441	
13	0	0	0	0	487	441	
14	0	0	0	0	487	442	
15	0	0	0	0	487	441	
0	0	0	0	0	487	442	
1	0	0	0	0	486	441	
2	0	0	0	0	487	442	
3	0	0	0	0	487	441	
4	0	0	0	0	487	441	
5	0	0	0	0	487	441	
6	0	0	0	0	487	441	
7	0	0	0	0	487	441	
8	0	0	0	0	487	441	
9	0	0	0	0	486	441	
10	0	0	0	0	486	442	
11	0	0	0	0	486	441	
12	0	0	0	0	485	441	
13	0	0	0	0	485	440	
14	0	0	0	0	485	441	
15	0	0	0	0	485	440	
0	0	0	0	0	486	440	
1	0	0	0	0	487	440	
2	0	0	0	0	487	440	
3	0	0	0	0	488	440	
4	0	0	0	0	488	440	
5	0	0	0	0	488	440	
6	0	0	0	0	487	440	
7	0	0	0	0	487	439	
8	0	0	0	0	488	440	
9	0	0	0	0	488	440	
10	0	0	0	0	489	440	
11	0	0	0	0	488	440	
12	0	0	0	0	489	440	
13	0	0	0	0	489	440	
14	0	0	0	0	489	440	
15	0	0	0	0	488	440	
0	0	0	0	0	489	440	
1	0	0	0	0	488	440	
2	0	0	0	0	489	441	
3	0	0	0	0	489	440	
4	0	0	0	0	489	440	
5	0	0	0	0	489	440	
6	0	0	0	0	490	441	
7	0	0	0	0	490	441	
8	0	0	0	0	490	441	
9	0	0	0	0	490	441	
10	0	0	0	0	490	442	
11	0	0	0	0	490	441	
12	0	0	0	0	491	441	
13	0	0	0	0	491	441	
14	0	0	0	0	492	441	
15	0	0	0	0	492	441	
0	0	0	0	0	492	441	
1	0	0	0	0	492	441	
2	0	0	0	0	492	442	
3	0	0	0	0	493	441	
4	0	0	0	0	493	441	
5	0	0	0	0	492	442	
6	0	0	0	0	493	443	
7	0	0	0	0	492	442	
8	0	0	0	0	493	442	
9	0	0	0	0	492	441	
10	0	0	0	0	491	443	
11	0	0	0	0	491	441	
12	0	0	0	0	491	442	
13	0	0	0	0	491	442	
14	0	0	0	0	491	442	
15	0	0	0	0	490	442	
0	0	0	0	0	490	442	
1	0	0	0	0	491	442	
2	0	0	0	0	491	443	
3	0	0	0	0	490	442	
4	0	0	0	0	490	441	
5	0	0	0	0	491	441	
6	0	0	0	0	492	441	
7	0	0	0	0	492	441	
8	0	0	0	0	493	441	
9	0	0	0	0	493	441	
10	0	0	0	0	494	442	
11	0	0	0	0	494	442	
12	0	0	0	0	494	441	
13	0	0	0	0	494	441	
14	0	0	0	0	494	441	
15	0	0	0	0	494	442	
0	0	0	0	0	494	441	
1	0	0	0	0	494	441	
2	0	0	0	0	494	442	
3	0	0	0	0	494	441	
4	0	0	0	0	494	442	
5	0	0	0	0	494	441	
6	0	0	0	0	494	442	
7	0	0	0	0	494	441	
8	0	0	0	0	494	442	
9	0	0	0	0	495	442	
10	0	0	0	0	495	442	
11	0	0	0	0	495	442	
12	0	0	0	0	495	442	
13	0	0	0	0	495	441	
14	0	0	0	0	495	442	
15	0	0	0	0	495	442	
0	0	0	0	0	495	442	
1	0	0	0	0	496	441	
2	0	0	0	0	496	443	
3	0	0	0	0	496	443	
4	0	0	0	0	496	442	
5	0	0	0	0	496	441	
6	0	0	0	0	496	442	
7	0	0	0	0	496	442	
8	0	0	0	0	495	441	
9	0	0	0	0	495	441	
10	0	0	0	0	495	441	
11	0	0	0	0	495	441	
12	0	0	0	0	494	440	
13	0	0	0	0	495	440	
14	0	0	0	0	495	441	
15	0	0	0	0	495	440	
0	0	0	0	0	496	441	
1	0	0	0	0	497	440	
2	0	0	0	0	499	441	
3	0	0	0	0	499	440	
4	0	0	0	0	501	440	
5	0	0	0	0	502	440	
6	0	0	0	0	502	441	
7	0	0	0	0	503	440	
8	0	0	0	0	503	440	
9	0	0	0	0	503	440	
10	0	0	0	0	504	440	
11	0	0	0	0	504	440	
12	0	0	0	0	504	440	
13	0	0	0	0	504	441	
14	0	0	0	0	505	441	
15	0	0	0	0	505	441	
0	0	0	0	0	505	441	
1	0	0	0	0	505	441	
2	0	0	0	0	505	442	
3	0	0	0	0	506	442	
4	0	0	0	0	506	441	
5	0	0	0	0	507	441	
6	0	0	0	0	507	442	
7	0	0	0	0	507	443	
8	0	0	0	0	508	442	
9	0	0	0	0	508	443	
10	0	0	0	0	509	443	
11	0	0	0	0	510	442	
12	0	0	0	0	510	443	
13	0	0	0	0	511	443	
14	0	0	0	0	512	443	
15	0	0	0	0	512	443	
0	0	0	0	0	513	444	
1	0	0	0	0	514	443	
2	0	0	0	0	515	444	
3	0	0	0	0	515	443	
4	0	0	0	0	515	442	
5	0	0	0	0	516	442	
6	0	0	0	0	516	443	
7	0	0	0	0	516	442	
8	0	0	0	0	516	441	
9	0	0	0	0	517	441	
10	0	0	0	0	516	442	
11	0	0	0	0	516	441	
12	0	0	0	0	516	441	
13	0	0	0	0	517	441	
14	0	0	0	0	516	441	
15	0	0	0	0	517	440	
0	0	0	0	0	517	441	
1	0	0	0	0	517	441	
2	0	0	0	0	516	440	
3	0	0	0	0	516	440	
4	0	0	0	0	516	441	
5	0	0	0	0	517	440	
6	0	0	0	0	518	441	
7	0	0	0	0	518	441	
8	0	0	0	0	519	441	
9	0	0	0	0	519	439	
10	0	0	0	0	519	440	
11	0	0	0	0	519	440	
12	0	0	0	0	519	440	
13	0	0	0	0	519	440	
14	0	0	0	0	520	441	
15	0	0	0	0	520	440	
0	0	0	0	0	521	440	
1	0	0	0	0	522	440	
2	0	0	0	0	522	441	
3	0	0	0	0	523	441	
4	0	0	0	0	524	441	
5	0	0	0	0	524	441	
6	0	0	0	0	524	442	
7	0	0	0	0	524	441	
8	0	0	0	0	524	441	
9	0	0	0	0	524	441	
10	0	0	0	0	524	442	
11	0	0	0	0	524	441	
12	0	0	0	0	524	441	
13	0	0	0	0	524	442	
14	0	0	0	0	524	442	
15	0	0	0	0	524	441	
0	0	0	0	0	524	442	
1	0	0	0	0	525	442	
2	0	0	0	0	525	443	
3	0	0	0	0	526	441	
4	0	0	0	0	525	442	
5	0	0	0	0	525	442	
6	0	0	0	0	525	442	
7	0	0	0	0	524	442	
8	0	0	0	0	523	443	
9	0	0	0	0	524	441	
10	0	0	0	0	523	443	
11	0	0	0	0	523	442	
12	0	0	0	0	523	441	
13	0	0	0	0	523	441	
14	0	0	0	0	523	442	
15	0	0	0	0	523	442	
0	0	0	0	0	522	441	
1	0	0	0	0	522	440	
2	0	0	0	0	521	441	
3	0	0	0	0	521	441	
4	0	0	0	0	520	440	
5	0	0	0	0	519	440	
6	0	0	0	0	519	440	
7	0	0	0	0	519	440	
8	0	0	0	0	519	440	
9	0	0	0	0	519	440	
10	0	0	0	0	519	440	
11	0	0	0	0	520	440	
12	0	0	0	0	520	440	
13	0	0	0	0	520	440	
14	0	0	0	0	520	441	
15	0	0	0	0	520	440	
0	0	0	0	0	519	440	
1	0	0	0	0	519	440	
2	0	0	0	0	520	442	
3	0	0	0	0	519	440	
4	0	0	0	0	519	441	
5	0	0	0	0	519	441	
6	0	0	0	0	519	442	
7	0	0	0	0	519	441	
8	0	0	0	0	519	441	
9	0	0	0	0	519	442	
10	0	0	0	0	519	442	
11	0	0	0	0	518	441	
12	0	0	0	0	518	442	
13	0	0	0	0	518	442	
14	0	0	0	0	517	443	
15	0	0	0	0	516	443	
0	0	0	0	0	516	443	
1	0	0	0	0	515	443	
2	0	0	0	0	514	443	
3	0	0	0	0	514	443	
4	0	0	0	0	515	443	
5	0	0	0	0	515	442	
6	0	0	0	0	515	444	
7	0	0	0	0	515	443	
8	0	0	0	0	516	442	
9	0	0	0	0	516	443	
10	0	0	0	0	516	443	
11	0	0	0	0	515	442	
12	0	0	0	0	516	442	
13	0	0	0	0	515	442	
14	0	0	0	0	515	443	
15	0	0	0	0	515	443	
0	0	0	0	0	515	442	
1	0	0	0	0	515	442	
2	0	0	0	0	516	443	
3	0	0	0	0	516	442	
4	0	0	0	0	515	443	
5	0	0	0	0	515	442	
6	0	0	0	0	515	442	
7	0	0	0	0	515	441	
8	0	0	0	0	515	441	
9	0	0	0	0	515	441	
10	0	0	0	0	515	442	
11	0	0	0	0	515	441	
12	0	0	0	0	515	441	
13	0	0	0	0	515	442	
14	0	0	0	0	514	443	
15	0	0	0	0	514	442	
0	0	0	0	0	514	441	
1	0	0	0	0	513	441	
2	0	0	0	0	513	442	
3	0	0	0	0	513	441	
4	0	0	0	0	514	441	
5	0	0	0	0	515	441	
6	0	0	0	0	515	441	
7	0	0	0	0	516	441	
8	0	0	0	0	516	441	
9	0	0	0	0	515	441	
10	0	0	0	0	516	442	
11	0	0	0	0	516	441	
12	0	0	0	0	517	442	
13	0	0	0	0	518	441	
14	0	0	0	0	518	442	
15	0	0	0	0	517	442	
0	0	0	0	0	517	441	
1	0	0	0	0	517	441	
2	0	0	0	0	517	442	
3	0	0	0	0	517	442	
4	0	0	0	0	517	441	
5	0	0	0	0	517	441	
6	0	0	0	0	518	441	
7	0	0	0	0	518	441	
8	0	0	0	0	519	441	
9	0	0	0	0	519	441	
10	0	0	0	0	519	442	
11	0	0	0	0	519	441	
12	0	0	0	0	519	441	
13	0	0	0	0	519	440	
14	0	0	0	0	518	441	
15	0	0	0	0	518	441	
0	0	0	0	0	519	441	
1	0	0	0	0	518	441	
2	0	0	0	0	518	441	
3	0	0	0	0	518	440	
4	0	0	0	0	518	442	
5	0	0	0	0	519	441	
6	0	0	0	0	519	441	
7	0	0	0	0	519	441	
8	0	0	0	0	519	441	
9	0	0	0	0	520	441	
10	0	0	0	0	520	442	
11	0	0	0	0	520	441	
12	0	0	0	0	521	441	
13	0	0	0	0	520	440	
14	0	0	0	0	521	441	
15	0	0	0	0	521	441	
0	0	0	0	0	521	441	
1	0	0	0	0	521	441	
2	0	0	0	0	521	442	
3	0	0	0	0	521	441	
4	0	0	0	0	520	441	
5	0	0	0	0	519	441	
6	0	0	0	0	519	441	
7	0	0	0	0	519	441	
8	0	0	0	0	518	442	
9	0	0	0	0	518	442	
10	0	0	0	0	517	442	
11	0	0	0	0	516	442	
12	0	0	0	0	516	442	
13	0	0	0	0	515	441	
14	0	0	0	0	515	442	
15	0	0	0	0	515	441	
0	0	0	0	0	515	441	
1	0	0	0	0	516	441	
2	0	0	0	0	516	441	
3	0	0	0	0	516	441	
4	0	0	0	0	517	441	
5	0	0	0	0	517	440	
6	0	0	0	0	518	441	
7	0	0	0	0	518	440	
8	0	0	0	0	518	441	
9	0	0	0	0	519	441	
10	0	0	0	0	519	442	
11	0	0	0	0	519	441	
12	0	0	0	0	519	441	
13	0	0	0	0	520	442	
14	0	0	0	0	520	441	
15	0	0	0	0	520	441	
0	0	0	0	0	520	441	
1	0	0	0	0	519	441	
2	0	0	0	0	520	442	
3	0	0	0	0	520	441	
4	0	0	0	0	521	441	
5	0	0	0	0	521	441	
6	0	0	0	0	520	441	
7	0	0	0	0	520	441	
8	0	0	0	0	520	441	
9	0	0	0	0	519	441	
10	0	0	0	0	519	441	
11	0	0	0	0	519	441	
12	0	0	0	0	518	441	
13	0	0	0	0	518	441	
14	0	0	0	0	517	441	
15	0	0	0	0	517	440	
0	0	0	0	0	517	441	
1	0	0	0	0	517	441	
2	0	0	0	0	516	441	
3	0	0	0	0	516	441	
4	0	0	0	0	517	441	
5	0	0	0	0	518	441	
6	0	0	0	0	518	441	
7	0	0	0	0	518	441	
8	0	0	0	0	519	441	
9	0	0	0	0	518	441	
10	0	0	0	0	518	442	
11	0	0	0	0	519	442	
12	0	0	0	0	518	441	
13	0	0	0	0	518	441	
14	0	0	0	0	518	441	
15	0	0	0	0	517	441	
0	0	0	0	0	517	441	
1	0	0	0	0	517	441	
2	0	0	0	0	517	442	
3	0	0	0	0	516	441	
4	0	0	0	0	515	441	
5	0	0	0	0	515	441	
6	0	0	0	0	515	441	
7	0	0	0	0	515	441	
8	0	0	0	0	514	441	
9	0	0	0	0	515	440	
10	0	0	0	0	515	442	
11	0	0	0	0	515	440	
12	0	0	0	0	514	440	
13	0	0	0	0	514	440	
14	0	0	0	0	515	440	
15	0	0	0	0	515	440	
0	0	0	0	0	515	441	
1	0	0	0	0	515	441	
2	0	0	0	0	515	441	
3	0	0	0	0	514	440	
4	0	0	0	0	515	441	
5	0	0	0	0	514	441	
6	0	0	0	0	514	441	
7	0	0	0	0	513	441	
8	0	0	0	0	513	441	
9	0	0	0	0	513	441	
10	0	0	0	0	513	442	
11	0	0	0	0	513	441	
12	0	0	0	0	513	441	
13	0	0	0	0	513	441	
14	0	0	0	0	514	441	
15	0	0	0	0	513	441	
0	0	0	0	0	513	441	
1	0	0	0	0	513	441	
2	0	0	0	0	513	442	
3	0	0	0	0	513	441	
4	0	0	0	0	512	441	
5	0	0	0	0	512	441	
6	0	0	0	0	512	443	
7	0	0	0	0	512	443	
8	0	0	0	0	512	441	
9	0	0	0	0	513	441	
10	0	0	0	0	513	443	
11	0	0	0	0	512	441	
12	0	0	0	0	511	442	
13	0	0	0	0	511	442	
14	0	0	0	0	511	442	
15	0	0	0	0	511	443	
0	0	0	0	0	511	442	
1	0	0	0	0	511	442	
2	0	0	0	0	512	443	
3	0	0	0	0	512	442	
4	0	0	0	0	512	442	
5	0	0	0	0	512	442	
6	0	0	0	0	512	443	
7	0	0	0	0	512	443	
8	0	0	0	0	512	443	
9	0	0	0	0	511	443	
10	0	0	0	0	511	444	
11	0	0	0	0	511	442	
12	0	0	0	0	511	443	
13	0	0	0	0	511	443	
14	0	0	0	0	511	444	
15	0	0	0	0	511	443	
0	0	0	0	0	510	442	
1	0	0	0	0	510	443	
2	0	0	0	0	509	444	
3	0	0	0	0	509	443	
4	0	0	0	0	509	442	
5	0	0	0	0	508	443	
6	0	0	0	0	508	443	
7	0	0	0	0	507	442	
8	0	0	0	0	506	442	
9	0	0	0	0	506	442	
10	0	0	0	0	505	443	
11	0	0	0	0	506	442	
12	0	0	0	0	505	442	
13	0	0	0	0	506	442	
14	0	0	0	0	506	441	
15	0	0	0	0	506	441	
0	0	0	0	0	506	441	
1	0	0	0	0	506	441	
2	0	0	0	0	505	441	
3	0	0	0	0	505	441	
4	0	0	0	0	506	441	
5	0	0	0	0	505	440	
6	0	0	0	0	505	441	
7	0	0	0	0	506	441	
8	0	0	0	0	506	441	
9	0	0	0	0	506	440	
10	0	0	0	0	507	441	
11	0	0	0	0	507	441	
12	0	0	0	0	508	440	
13	0	0	0	0	510	440	
14	0	0	0	0	510	440	
15	0	0	0	0	511	441	
0	0	0	0	0	512	441	
1	0	0	0	0	512	440	
2	0	0	0	0	512	441	
3	0	0	0	0	512	440	
4	0	0	0	0	513	441	
5	0	0	0	0	513	440	
6	0	0	0	0	513	440	
7	0	0	0	0	514	441	
8	0	0	0	0	514	441	
9	0	0	0	0	515	441	
10	0	0	0	0	515	442	
11	0	0	0	0	515	442	
12	0	0	0	0	515	442	
13	0	0	0	0	515	442	
14	0	0	0	0	516	442	
15	0	0	0	0	515	442	
0	0	0	0	0	514	442	
1	0	0	0	0	514	441	
2	0	0	0	0	513	442	
3	0	0	0	0	512	441	
4	0	0	0	0	512	440	
5	0	0	0	0	512	442	
6	0	0	0	0	511	441	
7	0	0	0	0	511	441	
8	0	0	0	0	511	441	
9	0	0	0	0	511	441	
10	0	0	0	0	511	441	
11	0	0	0	0	511	441	
12	0	0	0	0	512	440	
13	0	0	0	0	512	441	
14	0	0	0	0	511	442	
15	0	0	0	0	511	441	
0	0	0	0	0	511	441	
1	0	0	0	0	511	441	
2	0	0	0	0	511	442	
3	0	0	0	0	512	440	
4	0	0	0	0	512	441	
5	0	0	0	0	513	441	
6	0	0	0	0	513	441	
7	0	0	0	0	513	441	
8	0	0	0	0	513	441	
9	0	0	0	0	512	440	
10	0	0	0	0	512	441	
11	0	0	0	0	512	441	
12	0	0	0	0	512	441	
13	0	0	0	0	512	441	
14	0	0	0	0	511	441	
15	0	0	0	0	511	441	
0	0	0	0	0	510	441	
1	0	0	0	0	510	441	
2	0	0	0	0	510	441	
3	0	0	0	0	509	441	
4	0	0	0	0	509	441	
5	0	0	0	0	508	441	
6	0	0	0	0	509	442	
7	0	0	0	0	510	441	
8	0	0	0	0	510	441	
9	0	0	0	0	510	441	
10	0	0	0	0	509	442	
11	0	0	0	0	510	441	
12	0	0	0	0	509	441	
13	0	0	0	0	509	441	
14	0	0	0	0	509	442	
15	0	0	0	0	508	440	
0	0	0	0	0	507	441	
1	0	0	0	0	507	441	
2	0	0	0	0	507	441	
3	0	0	0	0	506	441	
4	0	0	0	0	505	441	
5	0	0	0	0	505	441	
6	0	0	0	0	504	442	
7	0	0	0	0	504	441	
8	0	0	0	0	504	441	
9	0	0	0	0	503	441	
10	0	0	0	0	503	442	
11	0	0	0	0	503	441	
12	0	0	0	0	504	441	
13	0	0	0	0	504	441	
14	0	0	0	0	503	442	
15	0	0	0	0	503	441	
0	0	0	0	0	503	441	
1	0	0	0	0	504	441	
2	0	0	0	0	503	442	
3	0	0	0	0	503	441	
4	0	0	0	0	503	441	
5	0	0	0	0	503	441	
6	0	0	0	0	504	443	
7	0	0	0	0	504	441	
8	0	0	0	0	504	441	
9	0	0	0	0	504	441	
10	0	0	0	0	504	443	
11	0	0	0	0	504	441	
12	0	0	0	0	504	441	
13	0	0	0	0	504	443	
14	0	0	0	0	504	442	
15	0	0	0	0	504	441	
0	0	0	0	0	503	442	
1	0	0	0	0	503	442	
2	0	0	0	0	503	443	
3	0	0	0	0	502	442	
4	0	0	0	0	502	442	
5	0	0	0	0	501	442	
6	0	0	0	0	500	443	
7	0	0	0	0	500	442	
8	0	0	0	0	500	442	
9	0	0	0	0	499	441	
10	0	0	0	0	500	443	
11	0	0	0	0	500	442	
12	0	0	0	0	500	441	
13	0	0	0	0	501	442	
14	0	0	0	0	502	442	
15	0	0	0	0	502	442	
0	0	0	0	0	502	442	
1	0	0	0	0	502	442	
2	0	0	0	0	503	443	
3	0	0	0	0	502	441	
4	0	0	0	0	501	441	
5	0	0	0	0	500	441	
6	0	0	0	0	500	441	
7	0	0	0	0	499	441	
8	0	0	0	0	499	441	
9	0	0	0	0	499	441	
10	0	0	0	0	499	441	
11	0	0	0	0	499	441	
12	0	0	0	0	499	441	
13	0	0	0	0	499	441	
14	0	0	0	0	498	441	
15	0	0	0	0	497	441	
0	0	0	0	0	496	441	
1	0	0	0	0	496	440	
2	0	0	0	0	495	441	
3	0	0	0	0	494	441	
4	0	0	0	0	492	440	
5	0	0	0	0	490	440	
6	0	0	0	0	487	441	
7	0	0	0	0	484	440	
8	0	0	0	0	480	441	
9	0	0	0	0	474	441	
10	0	0	0	0	467	441	
11	0	0	0	0	462	441	
12	0	0	0	0	455	441	
13	0	0	0	0	449	441	
14	0	0	0	0	443	442	
15	0	0	0	0	438	442	
0	0	0	0	0	435	441	
1	0	0	0	0	432	442	
2	0	0	0	0	431	442	
3	0	0	0	0	430	441	
4	0	0	0	0	430	441	
5	0	0	0	0	429	441	
6	0	0	0	0	429	442	
7	0	0	0	0	429	442	
8	0	0	0	0	431	441	
9	0	0	0	0	435	441	
10	0	0	0	0	440	442	
11	0	0	0	0	445	441	
12	0	0	0	0	451	441	
13	0	0	0	0	459	441	
14	0	0	0	0	470	441	
15	0	0	0	0	481	441	
0	0	0	0	0	491	441	
1	0	0	0	0	502	442	
2	0	0	0	0	513	442	
3	0	0	0	0	526	441	
4	0	0	0	0	536	441	
5	0	0	0	0	545	441	
6	0	0	0	0	555	442	
7	0	0	0	0	563	441	
8	0	0	0	0	572	441	
9	0	0	0	0	585	441	
10	0	0	0	0	600	443	
11	0	0	0	0	618	442	
12	0	0	0	0	635	441	
13	0	0	0	0	651	441	
14	0	0	0	0	665	441	
15	0	0	0	0	676	442	
0	0	0	0	0	686	442	
1	0	0	0	0	691	442	
2	0	0	0	0	691	442	
3	0	0	0	0	693	442	
4	0	0	0	0	692	441	
5	0	0	0	0	691	442	
6	0	0	0	0	689	441	
7	0	0	0	0	685	441	
8	0	0	0	0	677	442	
9	0	0	0	0	666	441	
10	0	0	0	0	652	441	
11	0	0	0	0	636	441	
12	0	0	0	0	620	441	
13	0	0	0	0	607	441	
14	0	0	0	0	596	441	
15	0	0	0	0	588	442	
0	0	0	0	0	583	441	
1	0	0	0	0	580	441	
2	0	0	0	0	577	442	
3	0	0	0	0	575	440	
4	0	0	0	0	574	441	
5	0	0	0	0	573	441	
6	0	0	0	0	570	441	
7	0	0	0	0	566	441	
8	0	0	0	0	561	441	
9	0	0	0	0	555	441	
10	0	0	0	0	548	442	
11	0	0	0	0	541	441	
12	0	0	0	0	533	442	
13	0	0	0	0	525	441	
14	0	0	0	0	517	441	
15	0	0	0	0	510	441	
0	0	0	0	0	503	441	
1	0	0	0	0	496	441	
2	0	0	0	0	490	442	
3	0	0	0	0	484	441	
4	0	0	0	0	480	441	
5	0	0	0	0	475	441	
6	0	0	0	0	472	441	
7	0	0	0	0	470	441	
8	0	0	0	0	468	441	
9	0	0	0	0	466	442	
10	0	0	0	0	464	443	
11	0	0	0	0	463	442	
12	0	0	0	0	463	442	
13	0	0	0	0	463	442	
14	0	0	0	0	463	442	
15	0	0	0	0	463	441	
0	0	0	0	0	462	441	
1	0	0	0	0	461	441	
2	0	0	0	0	460	442	
3	0	0	0	0	459	442	
4	0	0	0	0	459	441	
5	0	0	0	0	458	442	
6	0	0	0	0	458	442	
7	0	0	0	0	457	442	
8	0	0	0	0	457	442	
9	0	0	0	0	457	442	
10	0	0	0	0	458	443	
11	0	0	0	0	458	442	
12	0	0	0	0	458	443	
13	0	0	0	0	458	441	
14	0	0	0	0	457	442	
15	0	0	0	0	457	441	
0	0	0	0	0	457	442	
1	0	0	0	0	458	441	
2	0	0	0	0	459	442	
3	0	0	0	0	460	441	
4	0	0	0	0	460	441	
5	0	0	0	0	460	442	
6	0	0	0	0	460	441	
7	0	0	0	0	460	441	
8	0	0	0	0	461	441	
9	0	0	0	0	462	442	
10	0	0	0	0	463	442	
11	0	0	0	0	463	441	
12	0	0	0	0	464	441	
13	0	0	0	0	465	441	
14	0	0	0	0	466	441	
15	0	0	0	0	467	441	
0	0	0	0	0	467	441	
1	0	0	0	0	467	440	
2	0	0	0	0	467	441	
3	0	0	0	0	468	441	
4	0	0	0	0	468	441	
5	0	0	0	0	469	441	
6	0	0	0	0	470	441	
7	0	0	0	0	470	440	
8	0	0	0	0	470	441	
9	0	0	0	0	470	441	
10	0	0	0	0	471	441	
11	0	0	0	0	471	441	
12	0	0	0	0	471	441	
13	0	0	0	0	471	441	
14	0	0	0	0	471	441	
15	0	0	0	0	471	441	
0	0	0	0	0	471	441	
1	0	0	0	0	472	440	
2	0	0	0	0	472	442	
3	0	0	0	0	473	441	
4	0	0	0	0	473	441	
5	0	0	0	0	474	440	
6	0	0	0	0	475	441	
7	0	0	0	0	475	441	
8	0	0	0	0	476	442	
9	0	0	0	0	476	442	
10	0	0	0	0	477	442	
11	0	0	0	0	477	442	
12	0	0	0	0	478	441	
13	0	0	0	0	478	441	
14	0	0	0	0	478	441	
15	0	0	0	0	478	441	
0	0	0	0	0	479	440	
1	0	0	0	0	479	440	
2	0	0	0	0	479	441	
3	0	0	0	0	478	440	
4	0	0	0	0	478	440	
5	0	0	0	0	479	441	
6	0	0	0	0	479	441	
7	0	0	0	0	480	440	
8	0	0	0	0	480	440	
9	0	0	0	0	480	440	
10	0	0	0	0	480	441	
11	0	0	0	0	481	441	
12	0	0	0	0	481	441	
13	0	0	0	0	481	441	
14	0	0	0	0	482	441	
15	0	0	0	0	481	441	
0	0	0	0	0	482	441	
1	0	0	0	0	482	441	
2	0	0	0	0	482	442	
3	0	0	0	0	483	441	
4	0	0	0	0	483	441	
5	0	0	0	0	483	441	
6	0	0	0	0	484	441	
7	0	0	0	0	484	441	
8	0	0	0	0	484	441	
9	0	0	0	0	484	441	
10	0	0	0	0	484	442	
11	0	0	0	0	483	442	
12	0	0	0	0	483	441	
13	0	0	0	0	483	441	
14	0	0	0	0	483	442	
15	0	0	0	0	483	441	
0	0	0	0	0	483	441	
1	0	0	0	0	483	441	
2	0	0	0	0	483	442	
3	0	0	0	0	484	441	
4	0	0	0	0	484	441	
5	0	0	0	0	484	441	
6	0	0	0	0	484	441	
7	0	0	0	0	484	441	
8	0	0	0	0	483	441	
9	0	0	0	0	484	442	
10	0	0	0	0	483	442	
11	0	0	0	0	484	441	
12	0	0	0	0	484	441	
13	0	0	0	0	483	441	
14	0	0	0	0	484	442	
15	0	0	0	0	485	441	
0	0	0	0	0	485	441	
1	0	0	0	0	486	441	
2	0	0	0	0	486	441	
3	0	0	0	0	487	441	
4	0	0	0	0	487	441	
5	0	0	0	0	487	441	
6	0	0	0	0	488	442	
7	0	0	0	0	488	441	
8	0	0	0	0	489	441	
9	0	0	0	0	489	441	
10	0	0	0	0	489	442	
11	0	0	0	0	489	441	
12	0	0	0	0	489	442	
13	0	0	0	0	489	442	
14	0	0	0	0	489	442	
15	0	0	0	0	488	442	
0	0	0	0	0	487	441	
1	0	0	0	0	487	442	
2	0	0	0	0	486	443	
3	0	0	0	0	485	442	
4	0	0	0	0	485	442	
5	0	0	0	0	485	442	
6	0	0	0	0	484	442	
7	0	0	0	0	485	442	
8	0	0	0	0	485	442	
9	0	0	0	0	486	442	
10	0	0	0	0	486	442	
11	0	0	0	0	486	441	
12	0	0	0	0	486	442	
13	0	0	0	0	486	441	
14	0	0	0	0	486	441	
15	0	0	0	0	486	441	
0	0	0	0	0	486	441	
1	0	0	0	0	486	441	
2	0	0	0	0	486	442	
3	0	0	0	0	487	442	
4	0	0	0	0	487	441	
5	0	0	0	0	486	442	
6	0	0	0	0	487	443	
7	0	0	0	0	486	442	
8	0	0	0	0	486	442	
9	0	0	0	0	486	443	
10	0	0	0	0	485	443	
11	0	0	0	0	486	442	
12	0	0	0	0	486	442	
13	0	0	0	0	487	443	
14	0	0	0	0	487	443	
15	0	0	0	0	487	443	
0	0	0	0	0	488	442	
1	0	0	0	0	487	442	
2	0	0	0	0	487	443	
3	0	0	0	0	487	443	
4	0	0	0	0	487	442	
5	0	0	0	0	488	443	
6	0	0	0	0	487	442	
7	0	0	0	0	487	442	
8	0	0	0	0	487	443	
9	0	0	0	0	488	442	
10	0	0	0	0	488	443	
11	0	0	0	0	488	443	
12	0	0	0	0	489	443	
13	0	0	0	0	490	442	
14	0	0	0	0	491	442	
15	0	0	0	0	491	442	
0	0	0	0	0	491	442	
1	0	0	0	0	491	441	
2	0	0	0	0	492	443	
3	0	0	0	0	491	441	
4	0	0	0	0	492	441	
5	0	0	0	0	492	442	
6	0	0	0	0	492	441	
7	0	0	0	0	493	441	
8	0	0	0	0	492	441	
9	0	0	0	0	492	442	
10	0	0	0	0	492	443	
11	0	0	0	0	492	442	
12	0	0	0	0	492	441	
13	0	0	0	0	493	441	
14	0	0	0	0	493	441	
15	0	0	0	0	494	441	
0	0	0	0	0	495	441	
1	0	0	0	0	496	441	
2	0	0	0	0	496	442	
3	0	0	0	0	497	441	
4	0	0	0	0	497	441	
5	0	0	0	0	498	441	
6	0	0	0	0	498	441	
7	0	0	0	0	497	440	
8	0	0	0	0	497	440	
9	0	0	0	0	498	441	
10	0	0	0	0	498	442	
11	0	0	0	0	497	441	
12	0	0	0	0	498	441	
13	0	0	0	0	498	441	
14	0	0	0	0	499	441	
15	0	0	0	0	499	440	
0	0	0	0	0	498	441	
1	0	0	0	0	499	441	
2	0	0	0	0	499	442	
3	0	0	0	0	500	440	
4	0	0	0	0	502	441	
5	0	0	0	0	503	441	
6	0	0	0	0	504	441	
7	0	0	0	0	505	442	
8	0	0	0	0	505	441	
9	0	0	0	0	507	441	
10	0	0	0	0	508	442	
11	0	0	0	0	509	442	
12	0	0	0	0	511	442	
13	0	0	0	0	512	441	
14	0	0	0	0	513	442	
15	0	0	0	0	514	441	
0	0	0	0	0	514	442	
1	0	0	0	0	514	441	
2	0	0	0	0	515	442	
3	0	0	0	0	515	442	
4	0	0	0	0	515	442	
5	0	0	0	0	515	442	
6	0	0	0	0	516	442	
7	0	0	0	0	518	441	
8	0	0	0	0	518	442	
9	0	0	0	0	519	441	
10	0	0	0	0	519	442	
11	0	0	0	0	519	441	
12	0	0	0	0	519	441	
13	0	0	0	0	520	442	
14	0	0	0	0	520	441	
15	0	0	0	0	520	441	
0	0	0	0	0	520	441	
1	0	0	0	0	520	441	
2	0	0	0	0	521	443	
3	0	0	0	0	521	441	
4	0	0	0	0	522	441	
5	0	0	0	0	521	442	
6	0	0	0	0	521	441	
7	0	0	0	0	520	441	
8	0	0	0	0	520	441	
9	0	0	0	0	520	441	
10	0	0	0	0	520	442	
11	0	0	0	0	519	441	
12	0	0	0	0	519	441	
13	0	0	0	0	520	441	
14	0	0	0	0	520	441	
15	0	0	0	0	520	441	
0	0	0	0	0	520	441	
1	0	0	0	0	520	441	
2	0	0	0	0	521	441	
3	0	0	0	0	521	441	
4	0	0	0	0	521	441	
5	0	0	0	0	521	441	
6	0	0	0	0	522	442	
7	0	0	0	0	522	441	
8	0	0	0	0	521	442	
9	0	0	0	0	522	441	
10	0	0	0	0	522	443	
11	0	0	0	0	522	442	
12	0	0	0	0	522	442	
13	0	0	0	0	522	442	
14	0	0	0	0	522	442	
15	0	0	0	0	522	442	
0	0	0	0	0	522	442	
1	0	0	0	0	523	442	
2	0	0	0	0	523	443	
3	0	0	0	0	522	442	
4	0	0	0	0	522	442	
5	0	0	0	0	521	442	
6	0	0	0	0	521	443	
7	0	0	0	0	520	441	
8	0	0	0	0	520	442	
9	0	0	0	0	519	441	
10	0	0	0	0	519	442	
11	0	0	0	0	519	442	
12	0	0	0	0	519	442	
13	0	0	0	0	519	442	
14	0	0	0	0	519	442	
15	0	0	0	0	519	441	
0	0	0	0	0	519	441	
1	0	0	0	0	519	442	
2	0	0	0	0	519	442	
3	0	0	0	0	519	441	
4	0	0	0	0	518	441	
5	0	0	0	0	518	440	
6	0	0	0	0	518	441	
7	0	0	0	0	517	442	
8	0	0	0	0	517	441	
9	0	0	0	0	516	441	
10	0	0	0	0	517	443	
11	0	0	0	0	516	441	
12	0	0	0	0	516	442	
13	0	0	0	0	517	442	
14	0	0	0	0	516	442	
15	0	0	0	0	517	441	
0	0	0	0	0	517	441	
1	0	0	0	0	518	442	
2	0	0	0	0	519	443	
3	0	0	0	0	520	442	
4	0	0	0	0	520	441	
5	0	0	0	0	519	441	
6	0	0	0	0	520	442	
7	0	0	0	0	519	441	
8	0	0	0	0	519	441	
9	0	0	0	0	519	441	
10	0	0	0	0	518	442	
11	0	0	0	0	518	441	
12	0	0	0	0	517	441	
13	0	0	0	0	517	441	
14	0	0	0	0	516	441	
15	0	0	0	0	517	441	
0	0	0	0	0	516	441	
1	0	0	0	0	516	441	
2	0	0	0	0	516	440	
3	0	0	0	0	517	441	
4	0	0	0	0	517	441	
5	0	0	0	0	517	441	
6	0	0	0	0	517	441	
7	0	0	0	0	517	440	
8	0	0	0	0	517	440	
9	0	0	0	0	516	440	
10	0	0	0	0	516	441	
11	0	0	0	0	516	440	
12	0	0	0	0	516	441	
13	0	0	0	0	515	441	
14	0	0	0	0	515	441	
15	0	0	0	0	515	441	
0	0	0	0	0	515	441	
1	0	0	0	0	513	440	
2	0	0	0	0	513	442	
3	0	0	0	0	512	441	
4	0	0	0	0	512	441	
5	0	0	0	0	512	441	
6	0	0	0	0	512	441	
7	0	0	0	0	511	440	
8	0	0	0	0	511	441	
9	0	0	0	0	511	441	
10	0	0	0	0	511	441	
11	0	0	0	0	512	441	
12	0	0	0	0	512	441	
13	0	0	0	0	513	441	
14	0	0	0	0	514	441	
15	0	0	0	0	515	441	
0	0	0	0	0	515	442	
1	0	0	0	0	515	442	
2	0	0	0	0	514	442	
3	0	0	0	0	514	442	
4	0	0	0	0	514	442	
5	0	0	0	0	514	442	
6	0	0	0	0	514	442	
7	0	0	0	0	514	442	
8	0	0	0	0	515	442	
9	0	0	0	0	515	442	
10	0	0	0	0	515	443	
11	0	0	0	0	515	442	
12	0	0	0	0	514	442	
13	0	0	0	0	514	442	
14	0	0	0	0	515	442	
15	0	0	0	0	515	442	
0	0	0	0	0	516	442	
1	0	0	0	0	515	441	
2	0	0	0	0	516	442	
3	0	0	0	0	517	441	
4	0	0	0	0	517	441	
5	0	0	0	0	518	441	
6	0	0	0	0	518	442	
7	0	0	0	0	518	442	
8	0	0	0	0	517	440	
9	0	0	0	0	517	441	
10	0	0	0	0	515	441	
11	0	0	0	0	516	441	
12	0	0	0	0	516	441	
13	0	0	0	0	517	441	
14	0	0	0	0	516	441	
15	0	0	0	0	516	441	
0	0	0	0	0	516	440	
1	0	0	0	0	517	441	
2	0	0	0	0	518	441	
3	0	0	0	0	519	441	
4	0	0	0	0	520	441	
5	0	0	0	0	520	440	
6	0	0	0	0	521	441	
7	0	0	0	0	520	440	
8	0	0	0	0	520	440	
9	0	0	0	0	520	441	
10	0	0	0	0	519	441	
11	0	0	0	0	519	441	
12	0	0	0	0	519	441	
13	0	0	0	0	519	440	
14	0	0	0	0	519	440	
15	0	0	0	0	518	440	
0	0	0	0	0	518	440	
1	0	0	0	0	517	440	
2	0	0	0	0	516	440	
3	0	0	0	0	517	440	
4	0	0	0	0	516	440	
5	0	0	0	0	517	441	
6	0	0	0	0	517	440	
7	0	0	0	0	517	440	
8	0	0	0	0	517	440	
9	0	0	0	0	517	440	
10	0	0	0	0	518	441	
11	0	0	0	0	518	441	
12	0	0	0	0	518	440	
13	0	0	0	0	518	441	
14	0	0	0	0	518	441	
15	0	0	0	0	518	441	
0	0	0	0	0	518	441	
1	0	0	0	0	519	440	
2	0	0	0	0	519	440	
3	0	0	0	0	519	440	
4	0	0	0	0	519	440	
5	0	0	0	0	520	440	
6	0	0	0	0	520	440	
7	0	0	0	0	521	440	
8	0	0	0	0	521	440	
9	0	0	0	0	521	440	
10	0	0	0	0	522	440	
11	0	0	0	0	521	440	
12	0	0	0	0	520	440	
13	0	0	0	0	520	440	
14	0	0	0	0	520	440	
15	0	0	0	0	520	440	
0	0	0	0	0	519	440	
1	0	0	0	0	519	440	
2	0	0	0	0	519	440	
3	0	0	0	0	519	440	
4	0	0	0	0	519	440	
5	0	0	0	0	519	440	
6	0	0	0	0	519	441	
7	0	0	0	0	519	440	
8	0	0	0	0	518	440	
9	0	0	0	0	518	441	
10	0	0	0	0	517	442	
11	0	0	0	0	517	441	
12	0	0	0	0	517	441	
13	0	0	0	0	517	442	
14	0	0	0	0	517	441	
15	0	0	0	0	517	441	
0	0	0	0	0	518	441	
1	0	0	0	0	517	441	
2	0	0	0	0	517	442	
3	0	0	0	0	516	441	
4	0	0	0	0	516	441	
5	0	0	0	0	517	441	
6	0	0	0	0	517	442	
7	0	0	0	0	518	442	
8	0	0	0	0	519	443	
9	0	0	0	0	519	442	
10	0	0	0	0	519	442	
11	0	0	0	0	519	442	
12	0	0	0	0	519	442	
13	0	0	0	0	519	443	
14	0	0	0	0	518	443	
15	0	0	0	0	518	442	
0	0	0	0	0	518	442	
1	0	0	0	0	518	442	
2	0	0	0	0	517	442	
3	0	0	0	0	516	442	
4	0	0	0	0	517	442	
5	0	0	0	0	517	442	
6	0	0	0	0	516	442	
7	0	0	0	0	516	442	
8	0	0	0	0	515	442	
9	0	0	0	0	515	442	
10	0	0	0	0	515	443	
11	0	0	0	0	515	442	
12	0	0	0	0	515	443	
13	0	0	0	0	514	443	
14	0	0	0	0	515	443	
15	0	0	0	0	514	443	
0	0	0	0	0	514	443	
1	0	0	0	0	514	443	
2	0	0	0	0	513	444	
3	0	0	0	0	513	444	
4	0	0	0	0	513	443	
5	0	0	0	0	512	444	
6	0	0	0	0	512	444	
7	0	0	0	0	512	444	
8	0	0	0	0	513	444	
9	0	0	0	0	512	444	
10	0	0	0	0	513	445	
11	0	0	0	0	513	444	
12	0	0	0	0	512	444	
13	0	0	0	0	513	444	
14	0	0	0	0	513	444	
15	0	0	0	0	513	444	
0	0	0	0	0	514	444	
1	0	0	0	0	514	445	
2	0	0	0	0	515	445	
3	0	0	0	0	515	444	
4	0	0	0	0	515	445	
5	0	0	0	0	515	445	
6	0	0	0	0	515	445	
7	0	0	0	0	514	444	
8	0	0	0	0	514	445	
9	0	0	0	0	515	446	
10	0	0	0	0	514	446	
11	0	0	0	0	514	444	
12	0	0	0	0	514	445	
13	0	0	0	0	513	445	
14	0	0	0	0	513	446	
15	0	0	0	0	514	445	
0	0	0	0	0	514	445	
1	0	0	0	0	514	445	
2	0	0	0	0	513	446	
3	0	0	0	0	514	445	
4	0	0	0	0	514	445	
5	0	0	0	0	515	445	
6	0	0	0	0	515	446	
7	0	0	0	0	515	445	
8	0	0	0	0	516	446	
9	0	0	0	0	516	445	
10	0	0	0	0	515	446	
11	0	0	0	0	515	445	
12	0	0	0	0	515	445	
13	0	0	0	0	515	445	
14	0	0	0	0	515	446	
15	0	0	0	0	515	446	
0	0	0	0	0	514	446	
1	0	0	0	0	514	445	
2	0	0	0	0	513	446	
3	0	0	0	0	513	445	
4	0	0	0	0	513	445	
5	0	0	0	0	512	445	
6	0	0	0	0	511	445	
7	0	0	0	0	511	445	
8	0	0	0	0	511	446	
9	0	0	0	0	511	445	
10	0	0	0	0	510	447	
11	0	0	0	0	510	446	
12	0	0	0	0	510	446	
13	0	0	0	0	510	446	
14	0	0	0	0	510	446	
15	0	0	0	0	510	446	
0	0	0	0	0	511	446	
1	0	0	0	0	511	445	
2	0	0	0	0	511	446	
3	0	0	0	0	512	445	
4	0	0	0	0	512	446	
5	0	0	0	0	511	446	
6	0	0	0	0	511	446	
7	0	0	0	0	510	446	
8	0	0	0	0	510	445	
9	0	0	0	0	510	446	
10	0	0	0	0	509	446	
11	0	0	0	0	508	446	
12	0	0	0	0	508	445	
13	0	0	0	0	508	445	
14	0	0	0	0	508	445	
15	0	0	0	0	507	444	
0	0	0	0	0	508	445	
1	0	0	0	0	508	445	
2	0	0	0	0	508	445	
3	0	0	0	0	508	444	
4	0	0	0	0	509	444	
5	0	0	0	0	509	444	
6	0	0	0	0	510	444	
7	0	0	0	0	511	444	
8	0	0	0	0	512	444	
9	0	0	0	0	512	443	
10	0	0	0	0	512	445	
11	0	0	0	0	512	444	
12	0	0	0	0	513	444	
13	0	0	0	0	514	444	
14	0	0	0	0	515	444	
15	0	0	0	0	515	443	
0	0	0	0	0	515	444	
1	0	0	0	0	515	444	
2	0	0	0	0	515	444	
3	0	0	0	0	515	444	
4	0	0	0	0	515	444	
5	0	0	0	0	516	444	
6	0	0	0	0	516	444	
7	0	0	0	0	517	444	
8	0	0	0	0	517	443	
9	0	0	0	0	516	444	
10	0	0	0	0	517	444	
11	0	0	0	0	517	443	
12	0	0	0	0	517	443	
13	0	0	0	0	518	443	
14	0	0	0	0	518	443	
15	0	0	0	0	518	443	
0	0	0	0	0	518	442	
1	0	0	0	0	518	443	
2	0	0	0	0	518	443	
3	0	0	0	0	518	442	
4	0	0	0	0	519	442	
5	0	0	0	0	519	442	
6	0	0	0	0	519	442	
7	0	0	0	0	519	442	
8	0	0	0	0	519	442	
9	0	0	0	0	518	441	
10	0	0	0	0	518	442	
11	0	0	0	0	518	441	
12	0	0	0	0	518	440	
13	0	0	0	0	517	441	
14	0	0	0	0	517	441	
15	0	0	0	0	517	441	
0	0	0	0	0	518	441	
1	0	0	0	0	517	441	
2	0	0	0	0	517	443	
3	0	0	0	0	517	442	
4	0	0	0	0	517	442	
5	0	0	0	0	517	441	
6	0	0	0	0	517	441	
7	0	0	0	0	516	442	
8	0	0	0	0	516	442	
9	0	0	0	0	516	442	
10	0	0	0	0	516	442	
11	0	0	0	0	515	442	
12	0	0	0	0	515	442	
13	0	0	0	0	515	441	
14	0	0	0	0	514	442	
15	0	0	0	0	513	443	
0	0	0	0	0	512	443	
1	0	0	0	0	512	443	
2	0	0	0	0	512	444	
3	0	0	0	0	512	442	
4	0	0	0	0	511	443	
5	0	0	0	0	511	443	
6	0	0	0	0	511	443	
7	0	0	0	0	510	443	
8	0	0	0	0	510	442	
9	0	0	0	0	509	443	
10	0	0	0	0	508	443	
11	0	0	0	0	507	443	
12	0	0	0	0	507	443	
13	0	0	0	0	508	443	
14	0	0	0	0	507	443	
15	0	0	0	0	508	443	
0	0	0	0	0	508	443	
1	0	0	0	0	507	444	
2	0	0	0	0	507	444	
3	0	0	0	0	508	443	
4	0	0	0	0	507	443	
5	0	0	0	0	508	443	
6	0	0	0	0	508	443	
7	0	0	0	0	508	443	
8	0	0	0	0	508	443	
9	0	0	0	0	508	443	
10	0	0	0	0	508	444	
11	0	0	0	0	508	444	
12	0	0	0	0	507	443	
13	0	0	0	0	508	443	
14	0	0	0	0	507	443	
15	0	0	0	0	505	443	
0	0	0	0	0	504	442	
1	0	0	0	0	504	442	
2	0	0	0	0	504	443	
3	0	0	0	0	504	442	
4	0	0	0	0	505	443	
5	0	0	0	0	504	443	
6	0	0	0	0	504	443	
7	0	0	0	0	505	443	
8	0	0	0	0	505	443	
9	0	0	0	0	505	443	
10	0	0	0	0	506	444	
11	0	0	0	0	505	443	
12	0	0	0	0	505	443	
13	0	0	0	0	505	443	
14	0	0	0	0	505	444	
15	0	0	0	0	504	443	
0	0	0	0	0	504	443	
1	0	0	0	0	504	443	
2	0	0	0	0	504	444	
3	0	0	0	0	505	444	
4	0	0	0	0	505	444	
5	0	0	0	0	505	444	
6	0	0	0	0	505	444	
7	0	0	0	0	504	444	
8	0	0	0	0	505	444	
9	0	0	0	0	504	443	
10	0	0	0	0	504	445	
11	0	0	0	0	504	444	
12	0	0	0	0	503	444	
13	0	0	0	0	504	444	
14	0	0	0	0	503	444	
15	0	0	0	0	502	444	
0	0	0	0	0	502	443	
1	0	0	0	0	502	443	
2	0	0	0	0	503	444	
3	0	0	0	0	502	443	
4	0	0	0	0	502	444	
5	0	0	0	0	503	444	
6	0	0	0	0	503	444	
7	0	0	0	0	504	443	
8	0	0	0	0	504	443	
9	0	0	0	0	504	444	
10	0	0	0	0	504	444	
11	0	0	0	0	504	444	
12	0	0	0	0	504	443	
13	0	0	0	0	503	443	
14	0	0	0	0	501	444	
15	0	0	0	0	499	443	
0	0	0	0	0	497	444	
1	0	0	0	0	495	444	
2	0	0	0	0	490	444	
3	0	0	0	0	485	444	
4	0	0	0	0	480	443	
5	0	0	0	0	473	443	
6	0	0	0	0	467	444	
7	0	0	0	0	460	444	
8	0	0	0	0	453	443	
9	0	0	0	0	447	443	
10	0	0	0	0	443	443	
11	0	0	0	0	439	443	
12	0	0	0	0	435	442	
13	0	0	0	0	434	443	
14	0	0	0	0	433	443	
15	0	0	0	0	434	442	
0	0	0	0	0	434	442	
1	0	0	0	0	434	443	
2	0	0	0	0	436	443	
3	0	0	0	0	439	443	
4	0	0	0	0	443	442	
5	0	0	0	0	449	443	
6	0	0	0	0	455	443	
7	0	0	0	0	463	443	
8	0	0	0	0	475	443	
9	0	0	0	0	487	443	
10	0	0	0	0	500	444	
11	0	0	0	0	512	443	
12	0	0	0	0	524	443	
13	0	0	0	0	538	444	
14	0	0	0	0	550	444	
15	0	0	0	0	560	444	
0	0	0	0	0	570	444	
1	0	0	0	0	579	443	
2	0	0	0	0	588	443	
3	0	0	0	0	600	442	
4	0	0	0	0	615	443	
5	0	0	0	0	632	443	
6	0	0	0	0	649	442	
7	0	0	0	0	665	441	
8	0	0	0	0	680	441	
9	0	0	0	0	692	442	
10	0	0	0	0	701	442	
11	0	0	0	0	707	443	
12	0	0	0	0	708	442	
13	0	0	0	0	708	442	
14	0	0	0	0	707	443	
15	0	0	0	0	705	442	
0	0	0	0	0	702	443	
1	0	0	0	0	696	443	
2	0	0	0	0	688	443	
3	0	0	0	0	678	443	
4	0	0	0	0	664	443	
5	0	0	0	0	648	442	
6	0	0	0	0	631	443	
7	0	0	0	0	615	442	
8	0	0	0	0	602	443	
9	0	0	0	0	593	443	
10	0	0	0	0	587	443	
11	0	0	0	0	582	442	
12	0	0	0	0	579	443	
13	0	0	0	0	577	443	
14	0	0	0	0	576	443	
15	0	0	0	0	574	443	
0	0	0	0	0	572	443	
1	0	0	0	0	568	442	
2	0	0	0	0	564	443	
3	0	0	0	0	558	442	
4	0	0	0	0	551	443	
5	0	0	0	0	544	443	
6	0	0	0	0	535	444	
7	0	0	0	0	527	443	
8	0	0	0	0	518	443	
9	0	0	0	0	510	442	
10	0	0	0	0	502	443	
11	0	0	0	0	494	442	
12	0	0	0	0	487	442	
13	0	0	0	0	482	443	
14	0	0	0	0	477	443	
15	0	0	0	0	474	443	
0	0	0	0	0	471	443	
1	0	0	0	0	468	442	
2	0	0	0	0	466	443	
3	0	0	0	0	464	442	
4	0	0	0	0	463	443	
5	0	0	0	0	462	442	
6	0	0	0	0	460	443	
7	0	0	0	0	459	441	
8	0	0	0	0	459	442	
9	0	0	0	0	459	442	
10	0	0	0	0	458	443	
11	0	0	0	0	458	442	
12	0	0	0	0	457	442	
13	0	0	0	0	458	442	
14	0	0	0	0	458	443	
15	0	0	0	0	457	442	
0	0	0	0	0	457	442	
1	0	0	0	0	457	442	
2	0	0	0	0	457	442	
3	0	0	0	0	458	442	
4	0	0	0	0	458	442	
5	0	0	0	0	459	442	
6	0	0	0	0	459	443	
7	0	0	0	0	459	443	
8	0	0	0	0	459	443	
9	0	0	0	0	459	442	
10	0	0	0	0	459	443	
11	0	0	0	0	459	443	
12	0	0	0	0	458	443	
13	0	0	0	0	457	443	
14	0	0	0	0	457	443	
15	0	0	0	0	457	442	
0	0	0	0	0	458	443	
1	0	0	0	0	459	443	
2	0	0	0	0	460	443	
3	0	0	0	0	460	443	
4	0	0	0	0	461	443	
5	0	0	0	0	462	443	
6	0	0	0	0	463	443	
7	0	0	0	0	463	443	
8	0	0	0	0	463	443	
9	0	0	0	0	464	443	
10	0	0	0	0	464	444	
11	0	0	0	0	463	443	
12	0	0	0	0	464	443	
13	0	0	0	0	463	443	
14	0	0	0	0	463	443	
15	0	0	0	0	464	443	
0	0	0	0	0	465	443	
1	0	0	0	0	465	442	
2	0	0	0	0	466	443	
3	0	0	0	0	467	443	
4	0	0	0	0	468	443	
5	0	0	0	0	469	443	
6	0	0	0	0	470	444	
7	0	0	0	0	471	443	
8	0	0	0	0	471	443	
9	0	0	0	0	472	443	
10	0	0	0	0	473	444	
11	0	0	0	0	473	443	
12	0	0	0	0	474	443	
13	0	0	0	0	475	442	
14	0	0	0	0	475	443	
15	0	0	0	0	476	443	
0	0	0	0	0	476	442	
1	0	0	0	0	476	442	
2	0	0	0	0	476	443	
3	0	0	0	0	476	442	
4	0	0	0	0	477	442	
5	0	0	0	0	477	442	
6	0	0	0	0	476	443	
7	0	0	0	0	477	443	
8	0	0	0	0	477	442	
9	0	0	0	0	478	442	
10	0	0	0	0	479	443	
11	0	0	0	0	479	441	
12	0	0	0	0	480	442	
13	0	0	0	0	480	442	
14	0	0	0	0	480	442	
15	0	0	0	0	480	441	
0	0	0	0	0	480	442	
1	0	0	0	0	480	442	
2	0	0	0	0	481	443	
3	0	0	0	0	481	443	
4	0	0	0	0	482	443	
5	0	0	0	0	483	442	
6	0	0	0	0	483	443	
7	0	0	0	0	482	442	
8	0	0	0	0	481	443	
9	0	0	0	0	481	443	
10	0	0	0	0	481	443	
11	0	0	0	0	482	443	
12	0	0	0	0	482	443	
13	0	0	0	0	482	443	
14	0	0	0	0	482	443	
15	0	0	0	0	482	443	
0	0	0	0	0	482	443	
1	0	0	0	0	482	443	
2	0	0	0	0	482	444	
3	0	0	0	0	483	443	
4	0	0	0	0	483	443	
5	0	0	0	0	484	443	
6	0	0	0	0	484	443	
7	0	0	0	0	484	443	
8	0	0	0	0	485	443	
9	0	0	0	0	485	442	
10	0	0	0	0	485	443	
11	0	0	0	0	485	442	
12	0	0	0	0	484	442	
13	0	0	0	0	484	442	
14	0	0	0	0	484	442	
15	0	0	0	0	484	441	
0	0	0	0	0	484	441	
1	0	0	0	0	485	442	
2	0	0	0	0	484	442	
3	0	0	0	0	484	441	
4	0	0	0	0	484	442	
5	0	0	0	0	484	442	
6	0	0	0	0	484	443	
7	0	0	0	0	484	442	
8	0	0	0	0	484	443	
9	0	0	0	0	484	443	
10	0	0	0	0	483	442	
11	0	0	0	0	483	441	
12	0	0	0	0	484	442	
13	0	0	0	0	485	442	
14	0	0	0	0	486	443	
15	0	0	0	0	487	442	
0	0	0	0	0	487	442	
1	0	0	0	0	487	442	
2	0	0	0	0	488	443	
3	0	0	0	0	488	442	
4	0	0	0	0	488	441	
5	0	0	0	0	487	443	
6	0	0	0	0	487	442	
7	0	0	0	0	487	442	
8	0	0	0	0	487	442	
9	0	0	0	0	487	442	
10	0	0	0	0	487	443	
11	0	0	0	0	487	442	
12	0	0	0	0	487	443	
13	0	0	0	0	487	443	
14	0	0	0	0	487	444	
15	0	0	0	0	487	443	
0	0	0	0	0	488	443	
1	0	0	0	0	487	443	
2	0	0	0	0	487	444	
3	0	0	0	0	487	443	
4	0	0	0	0	487	443	
5	0	0	0	0	487	444	
6	0	0	0	0	487	444	
7	0	0	0	0	486	444	
8	0	0	0	0	485	444	
9	0	0	0	0	484	443	
10	0	0	0	0	484	444	
11	0	0	0	0	484	444	
12	0	0	0	0	484	444	
13	0	0	0	0	484	444	
14	0	0	0	0	484	444	
15	0	0	0	0	485	443	
0	0	0	0	0	485	443	
1	0	0	0	0	485	443	
2	0	0	0	0	486	443	
3	0	0	0	0	487	443	
4	0	0	0	0	487	443	
5	0	0	0	0	488	442	
6	0	0	0	0	488	442	
7	0	0	0	0	489	442	
8	0	0	0	0	490	441	
9	0	0	0	0	490	442	
10	0	0	0	0	490	442	
11	0	0	0	0	489	442	
12	0	0	0	0	490	442	
13	0	0	0	0	490	442	
14	0	0	0	0	491	442	
15	0	0	0	0	491	442	
0	0	0	0	0	492	441	
1	0	0	0	0	492	441	
2	0	0	0	0	493	442	
3	0	0	0	0	493	442	
4	0	0	0	0	493	442	
5	0	0	0	0	492	442	
6	0	0	0	0	492	442	
7	0	0	0	0	492	442	
8	0	0	0	0	493	441	
9	0	0	0	0	493	441	
10	0	0	0	0	493	443	
11	0	0	0	0	493	442	
12	0	0	0	0	494	442	
13	0	0	0	0	494	442	
14	0	0	0	0	494	442	
15	0	0	0	0	494	441	
0	0	0	0	0	494	442	
1	0	0	0	0	494	442	
2	0	0	0	0	495	443	
3	0	0	0	0	494	442	
4	0	0	0	0	495	443	
5	0	0	0	0	494	441	
6	0	0	0	0	494	442	
7	0	0	0	0	495	442	
8	0	0	0	0	495	442	
9	0	0	0	0	495	443	
10	0	0	0	0	494	443	
11	0	0	0	0	494	442	
12	0	0	0	0	495	442	
13	0	0	0	0	496	442	
14	0	0	0	0	497	443	
15	0	0	0	0	497	443	
0	0	0	0	0	497	443	
1	0	0	0	0	498	443	
2	0	0	0	0	498	444	
3	0	0	0	0	499	444	
4	0	0	0	0	499	443	
5	0	0	0	0	499	443	
6	0	0	0	0	499	443	
7	0	0	0	0	499	443	
8	0	0	0	0	500	443	
9	0	0	0	0	500	444	
10	0	0	0	0	500	444	
11	0	0	0	0	500	443	
12	0	0	0	0	500	443	
13	0	0	0	0	500	443	
14	0	0	0	0	500	443	
15	0	0	0	0	500	443	
0	0	0	0	0	501	444	
1	0	0	0	0	501	443	
2	0	0	0	0	503	444	
3	0	0	0	0	503	443	
4	0	0	0	0	504	443	
5	0	0	0	0	504	443	
6	0	0	0	0	505	443	
7	0	0	0	0	506	443	
8	0	0	0	0	507	443	
9	0	0	0	0	507	443	
10	0	0	0	0	509	443	
11	0	0	0	0	510	443	
12	0	0	0	0	511	443	
13	0	0	0	0	511	443	
14	0	0	0	0	511	444	
15	0	0	0	0	512	442	
0	0	0	0	0	512	443	
1	0	0	0	0	513	442	
2	0	0	0	0	512	443	
3	0	0	0	0	513	443	
4	0	0	0	0	513	443	
5	0	0	0	0	513	443	
6	0	0	0	0	515	443	
7	0	0	0	0	515	443	
8	0	0	0	0	515	442	
9	0	0	0	0	516	442	
10	0	0	0	0	516	443	
11	0	0	0	0	517	442	
12	0	0	0	0	517	442	
13	0	0	0	0	518	442	
14	0	0	0	0	518	442	
15	0	0	0	0	519	442	
0	0	0	0	0	519	442	
1	0	0	0	0	520	442	
2	0	0	0	0	521	443	
3	0	0	0	0	521	442	
4	0	0	0	0	522	443	
5	0	0	0	0	521	442	
6	0	0	0	0	521	443	
7	0	0	0	0	521	442	
8	0	0	0	0	521	442	
9	0	0	0	0	521	441	
10	0	0	0	0	521	443	
11	0	0	0	0	521	441	
12	0	0	0	0	522	441	
13	0	0	0	0	522	442	
14	0	0	0	0	522	441	
15	0	0	0	0	523	442	
0	0	0	0	0	522	441	
1	0	0	0	0	522	442	
2	0	0	0	0	522	442	
3	0	0	0	0	522	442	
4	0	0	0	0	523	442	
5	0	0	0	0	523	442	
6	0	0	0	0	523	442	
7	0	0	0	0	524	441	
8	0	0	0	0	524	442	
9	0	0	0	0	524	442	
10	0	0	0	0	524	442	
11	0	0	0	0	524	442	
12	0	0	0	0	523	441	
13	0	0	0	0	523	441	
14	0	0	0	0	523	443	
15	0	0	0	0	523	442	
0	0	0	0	0	523	442	
1	0	0	0	0	524	441	
2	0	0	0	0	524	443	
3	0	0	0	0	524	443	
4	0	0	0	0	524	443	
5	0	0	0	0	525	443	
6	0	0	0	0	525	443	
7	0	0	0	0	524	443	
8	0	0	0	0	524	442	
9	0	0	0	0	524	443	
10	0	0	0	0	523	443	
11	0	0	0	0	523	443	
12	0	0	0	0	523	443	
13	0	0	0	0	523	444	
14	0	0	0	0	523	444	
15	0	0	0	0	523	443	
0	0	0	0	0	523	444	
1	0	0	0	0	523	443	
2	0	0	0	0	522	444	
3	0	0	0	0	523	443	
4	0	0	0	0	522	444	
5	0	0	0	0	522	444	
6	0	0	0	0	521	444	
7	0	0	0	0	522	444	
8	0	0	0	0	522	443	
9	0	0	0	0	521	444	
10	0	0	0	0	521	444	
11	0	0	0	0	520	443	
12	0	0	0	0	520	443	
13	0	0	0	0	519	443	
14	0	0	0	0	519	444	
15	0	0	0	0	519	444	
0	0	0	0	0	518	444	
1	0	0	0	0	517	443	
2	0	0	0	0	517	444	
3	0	0	0	0	518	443	
4	0	0	0	0	518	442	
5	0	0	0	0	518	442	
6	0	0	0	0	518	442	
7	0	0	0	0	518	442	
8	0	0	0	0	518	441	
9	0	0	0	0	518	441	
10	0	0	0	0	517	441	
11	0	0	0	0	518	441	
12	0	0	0	0	517	440	
13	0	0	0	0	517	440	
14	0	0	0	0	517	441	
15	0	0	0	0	517	441	
0	0	0	0	0	518	441	
1	0	0	0	0	518	441	
2	0	0	0	0	518	442	
3	0	0	0	0	517	441	
4	0	0	0	0	517	440	
5	0	0	0	0	517	440	
6	0	0	0	0	516	441	
7	0	0	0	0	516	441	
8	0	0	0	0	516	441	
9	0	0	0	0	516	441	
10	0	0	0	0	516	442	
11	0	0	0	0	516	441	
12	0	0	0	0	516	441	
13	0	0	0	0	516	441	
14	0	0	0	0	516	441	
15	0	0	0	0	516	441	
0	0	0	0	0	516	441	
1	0	0	0	0	517	441	
2	0	0	0	0	517	441	
3	0	0	0	0	517	441	
4	0	0	0	0	518	441	
5	0	0	0	0	516	441	
6	0	0	0	0	517	442	
7	0	0	0	0	517	441	
8	0	0	0	0	516	441	
9	0	0	0	0	516	442	
10	0	0	0	0	515	443	
11	0	0	0	0	515	442	
12	0	0	0	0	514	442	
13	0	0	0	0	513	442	
14	0	0	0	0	513	443	
15	0	0	0	0	512	443	
0	0	0	0	0	512	442	
1	0	0	0	0	511	442	
2	0	0	0	0	511	443	
3	0	0	0	0	511	443	
4	0	0	0	0	511	443	
5	0	0	0	0	510	442	
6	0	0	0	0	511	443	
7	0	0	0	0	510	442	
8	0	0	0	0	511	443	
9	0	0	0	0	511	441	
10	0	0	0	0	512	443	
11	0	0	0	0	512	442	
12	0	0	0	0	512	443	
13	0	0	0	0	512	442	
14	0	0	0	0	512	442	
15	0	0	0	0	513	441	
0	0	0	0	0	513	442	
1	0	0	0	0	514	441	
2	0	0	0	0	515	441	
3	0	0	0	0	514	441	
4	0	0	0	0	514	442	
5	0	0	0	0	515	442	
6	0	0	0	0	514	442	
7	0	0	0	0	514	441	
8	0	0	0	0	514	441	
9	0	0	0	0	513	441	
10	0	0	0	0	513	443	
11	0	0	0	0	513	442	
12	0	0	0	0	514	441	
13	0	0	0	0	514	441	
14	0	0	0	0	514	441	
15	0	0	0	0	513	441	
0	0	0	0	0	515	441	
1	0	0	0	0	515	441	
2	0	0	0	0	515	442	
3	0	0	0	0	515	442	
4	0	0	0	0	515	442	
5	0	0	0	0	514	442	
6	0	0	0	0	514	442	
7	0	0	0	0	514	441	
8	0	0	0	0	514	442	
9	0	0	0	0	514	442	
10	0	0	0	0	514	443	
11	0	0	0	0	513	443	
12	0	0	0	0	513	443	
13	0	0	0	0	513	443	
14	0	0	0	0	513	443	
15	0	0	0	0	512	442	
0	0	0	0	0	512	443	
1	0	0	0	0	512	443	
2	0	0	0	0	512	444	
3	0	0	0	0	512	443	
4	0	0	0	0	513	442	
5	0	0	0	0	513	443	
6	0	0	0	0	514	443	
7	0	0	0	0	514	443	
8	0	0	0	0	514	444	
9	0	0	0	0	514	443	
10	0	0	0	0	515	444	
11	0	0	0	0	515	443	
12	0	0	0	0	515	443	
13	0	0	0	0	515	443	
14	0	0	0	0	515	443	
15	0	0	0	0	515	442	
0	0	0	0	0	515	443	
1	0	0	0	0	515	442	
2	0	0	0	0	515	444	
3	0	0	0	0	515	442	
4	0	0	0	0	515	443	
5	0	0	0	0	515	442	
6	0	0	0	0	515	442	
7	0	0	0	0	515	442	
8	0	0	0	0	515	442	
9	0	0	0	0	515	442	
10	0	0	0	0	515	443	
11	0	0	0	0	515	442	
12	0	0	0	0	516	442	
13	0	0	0	0	515	443	
14	0	0	0	0	515	443	
15	0	0	0	0	515	442	
0	0	0	0	0	515	442	
1	0	0	0	0	515	441	
2	0	0	0	0	515	443	
3	0	0	0	0	515	442	
4	0	0	0	0	516	442	
5	0	0	0	0	517	442	
6	0	0	0	0	518	443	
7	0	0	0	0	519	442	
8	0	0	0	0	519	443	
9	0	0	0	0	520	443	
10	0	0	0	0	520	443	
11	0	0	0	0	520	442	
12	0	0	0	0	521	442	
13	0	0	0	0	522	442	
14	0	0	0	0	521	442	
15	0	0	0	0	523	442	
0	0	0	0	0	523	442	
1	0	0	0	0	522	442	
2	0	0	0	0	521	443	
3	0	0	0	0	521	442	
4	0	0	0	0	521	442	
5	0	0	0	0	520	442	
6	0	0	0	0	520	443	
7	0	0	0	0	520	442	
8	0	0	0	0	519	442	
9	0	0	0	0	519	442	
10	0	0	0	0	518	443	
11	0	0	0	0	517	442	
12	0	0	0	0	518	442	
13	0	0	0	0	518	441	
14	0	0	0	0	518	443	
15	0	0	0	0	517	442	
0	0	0	0	0	517	442	
1	0	0	0	0	517	442	
2	0	0	0	0	517	443	
3	0	0	0	0	516	441	
4	0	0	0	0	516	441	
5	0	0	0	0	515	442	
6	0	0	0	0	515	442	
7	0	0	0	0	515	442	
8	0	0	0	0	516	442	
9	0	0	0	0	516	441	
10	0	0	0	0	517	442	
11	0	0	0	0	517	442	
12	0	0	0	0	517	441	
13	0	0	0	0	517	441	
14	0	0	0	0	517	441	
15	0	0	0	0	516	441	
0	0	0	0	0	516	441	
1	0	0	0	0	516	440	
2	0	0	0	0	515	441	
3	0	0	0	0	515	442	
4	0	0	0	0	515	440	
5	0	0	0	0	515	442	
6	0	0	0	0	515	442	
7	0	0	0	0	515	442	
8	0	0	0	0	515	442	
9	0	0	0	0	515	441	
10	0	0	0	0	515	442	
11	0	0	0	0	515	441	
12	0	0	0	0	515	441	
13	0	0	0	0	515	441	
14	0	0	0	0	516	442	
15	0	0	0	0	516	442	
0	0	0	0	0	515	441	
1	0	0	0	0	516	441	
2	0	0	0	0	517	442	
3	0	0	0	0	517	441	
4	0	0	0	0	516	441	
5	0	0	0	0	515	441	
6	0	0	0	0	515	441	
7	0	0	0	0	514	441	
8	0	0	0	0	513	441	
9	0	0	0	0	513	441	
10	0	0	0	0	513	442	
11	0	0	0	0	512	441	
12	0	0	0	0	512	442	
13	0	0	0	0	511	441	
14	0	0	0	0	511	442	
15	0	0	0	0	511	441	
0	0	0	0	0	511	442	
1	0	0	0	0	510	441	
2	0	0	0	0	510	442	
3	0	0	0	0	511	442	
4	0	0	0	0	510	442	
5	0	0	0	0	511	442	
6	0	0	0	0	512	443	
7	0	0	0	0	512	442	
8	0	0	0	0	513	443	
9	0	0	0	0	513	442	
10	0	0	0	0	514	443	
11	0	0	0	0	514	442	
12	0	0	0	0	513	443	
13	0	0	0	0	513	443	
14	0	0	0	0	513	443	
15	0	0	0	0	514	443	
0	0	0	0	0	514	443	
1	0	0	0	0	515	442	
2	0	0	0	0	515	443	
3	0	0	0	0	514	442	
4	0	0	0	0	514	443	
5	0	0	0	0	513	442	
6	0	0	0	0	512	442	
7	0	0	0	0	512	443	
8	0	0	0	0	512	443	
9	0	0	0	0	513	442	
10	0	0	0	0	513	443	
11	0	0	0	0	512	443	
12	0	0	0	0	512	443	
13	0	0	0	0	512	442	
14	0	0	0	0	512	443	
15	0	0	0	0	512	442	
0	0	0	0	0	512	442	
1	0	0	0	0	512	441	
2	0	0	0	0	511	443	
3	0	0	0	0	511	442	
4	0	0	0	0	511	442	
5	0	0	0	0	511	442	
6	0	0	0	0	510	442	
7	0	0	0	0	509	441	
8	0	0	0	0	509	442	
9	0	0	0	0	508	443	
10	0	0	0	0	508	443	
11	0	0	0	0	509	442	
12	0	0	0	0	509	442	
13	0	0	0	0	509	442	
14	0	0	0	0	510	442	
15	0	0	0	0	511	442	
0	0	0	0	0	511	442	
1	0	0	0	0	512	441	
2	0	0	0	0	512	443	
3	0	0	0	0	513	442	
4	0	0	0	0	514	441	
5	0	0	0	0	515	441	
6	0	0	0	0	515	442	
7	0	0	0	0	515	441	
8	0	0	0	0	515	441	
9	0	0	0	0	515	441	
10	0	0	0	0	515	443	
11	0	0	0	0	515	442	
12	0	0	0	0	515	441	
13	0	0	0	0	515	441	
14	0	0	0	0	516	442	
15	0	0	0	0	517	442	
0	0	0	0	0	517	441	
1	0	0	0	0	517	442	
2	0	0	0	0	517	442	
3	0	0	0	0	517	441	
4	0	0	0	0	518	441	
5	0	0	0	0	518	442	
6	0	0	0	0	518	442	
7	0	0	0	0	518	441	
8	0	0	0	0	518	441	
9	0	0	0	0	518	441	
10	0	0	0	0	518	442	
11	0	0	0	0	518	441	
12	0	0	0	0	518	442	
13	0	0	0	0	518	442	
14	0	0	0	0	517	443	
15	0	0	0	0	516	442	
0	0	0	0	0	516	442	
1	0	0	0	0	516	441	
2	0	0	0	0	516	443	
3	0	0	0	0	516	442	
4	0	0	0	0	517	442	
5	0	0	0	0	518	441	
6	0	0	0	0	518	442	
7	0	0	0	0	518	440	
8	0	0	0	0	519	441	
9	0	0	0	0	519	441	
10	0	0	0	0	520	442	
11	0	0	0	0	520	441	
12	0	0	0	0	520	441	
13	0	0	0	0	520	442	
14	0	0	0	0	520	442	
15	0	0	0	0	520	441	
0	0	0	0	0	519	442	
1	0	0	0	0	519	442	
2	0	0	0	0	519	443	
3	0	0	0	0	518	442	
4	0	0	0	0	518	441	
5	0	0	0	0	517	441	
6	0	0	0	0	517	442	
7	0	0	0	0	517	441	
8	0	0	0	0	517	441	
9	0	0	0	0	516	441	
10	0	0	0	0	516	443	
11	0	0	0	0	515	441	
12	0	0	0	0	515	441	
13	0	0	0	0	514	442	
14	0	0	0	0	514	442	
15	0	0	0	0	514	441	
0	0	0	0	0	513	441	
1	0	0	0	0	514	441	
2	0	0	0	0	514	442	
3	0	0	0	0	514	441	
4	0	0	0	0	514	441	
5	0	0	0	0	513	441	
6	0	0	0	0	514	442	
7	0	0	0	0	514	441	
8	0	0	0	0	513	441	
9	0	0	0	0	513	441	
10	0	0	0	0	512	442	
11	0	0	0	0	512	442	
12	0	0	0	0	511	441	
13	0	0	0	0	511	441	
14	0	0	0	0	510	442	
15	0	0	0	0	509	441	
0	0	0	0	0	508	442	
1	0	0	0	0	508	442	
2	0	0	0	0	508	443	
3	0	0	0	0	509	441	
4	0	0	0	0	510	441	
5	0	0	0	0	511	442	
6	0	0	0	0	511	442	
7	0	0	0	0	511	443	
8	0	0	0	0	511	442	
9	0	0	0	0	512	441	
10	0	0	0	0	512	443	
11	0	0	0	0	512	442	
12	0	0	0	0	512	441	
13	0	0	0	0	511	441	
14	0	0	0	0	511	442	
15	0	0	0	0	510	442	
0	0	0	0	0	510	441	
1	0	0	0	0	510	441	
2	0	0	0	0	510	442	
3	0	0	0	0	510	442	
4	0	0	0	0	510	442	
5	0	0	0	0	510	441	
6	0	0	0	0	510	442	
7	0	0	0	0	510	441	
8	0	0	0	0	510	442	
9	0	0	0	0	510	442	
10	0	0	0	0	510	442	
11	0	0	0	0	509	441	
12	0	0	0	0	509	440	
13	0	0	0	0	508	441	
14	0	0	0	0	508	441	
15	0	0	0	0	508	440	
0	0	0	0	0	508	441	
1	0	0	0	0	508	441	
2	0	0	0	0	507	441	
3	0	0	0	0	507	442	
4	0	0	0	0	506	442	
5	0	0	0	0	505	442	
6	0	0	0	0	504	442	
7	0	0	0	0	504	442	
8	0	0	0	0	504	443	
9	0	0	0	0	504	442	
10	0	0	0	0	503	443	
11	0	0	0	0	503	441	
12	0	0	0	0	502	442	
13	0	0	0	0	501	441	
14	0	0	0	0	501	442	
15	0	0	0	0	501	442	
0	0	0	0	0	502	442	
1	0	0	0	0	502	441	
2	0	0	0	0	502	442	
3	0	0	0	0	501	442	
4	0	0	0	0	500	442	
5	0	0	0	0	498	442	
6	0	0	0	0	495	442	
7	0	0	0	0	492	443	
8	0	0	0	0	487	442	
9	0	0	0	0	482	443	
10	0	0	0	0	476	443	
11	0	0	0	0	470	443	
12	0	0	0	0	464	443	
13	0	0	0	0	458	442	
14	0	0	0	0	451	442	
15	0	0	0	0	445	441	
0	0	0	0	0	441	441	
1	0	0	0	0	438	442	
2	0	0	0	0	436	442	
3	0	0	0	0	434	442	
4	0	0	0	0	433	441	
5	0	0	0	0	432	441	
6	0	0	0	0	433	443	
7	0	0	0	0	435	441	
8	0	0	0	0	436	441	
9	0	0	0	0	439	441	
10	0	0	0	0	444	443	
11	0	0	0	0	450	442	
12	0	0	0	0	458	441	
13	0	0	0	0	467	442	
14	0	0	0	0	478	441	
15	0	0	0	0	489	441	
0	0	0	0	0	502	441	
1	0	0	0	0	514	441	
2	0	0	0	0	527	441	
3	0	0	0	0	540	441	
4	0	0	0	0	551	441	
5	0	0	0	0	561	441	
6	0	0	0	0	569	441	
7	0	0	0	0	576	441	
8	0	0	0	0	583	441	
9	0	0	0	0	592	440	
10	0	0	0	0	604	442	
11	0	0	0	0	616	441	
12	0	0	0	0	630	441	
13	0	0	0	0	645	441	
14	0	0	0	0	658	441	
15	0	0	0	0	668	441	
0	0	0	0	0	675	440	
1	0	0	0	0	676	441	
2	0	0	0	0	676	442	
3	0	0	0	0	675	441	
4	0	0	0	0	674	441	
5	0	0	0	0	674	442	
6	0	0	0	0	673	441	
7	0	0	0	0	669	442	
8	0	0	0	0	660	441	
9	0	0	0	0	647	442	
10	0	0	0	0	632	442	
11	0	0	0	0	615	442	
12	0	0	0	0	597	441	
13	0	0	0	0	580	441	
14	0	0	0	0	568	442	
15	0	0	0	0	559	441	
0	0	0	0	0	554	441	
1	0	0	0	0	553	441	
2	0	0	0	0	553	441	
3	0	0	0	0	556	440	
4	0	0	0	0	559	440	
5	0	0	0	0	561	440	
6	0	0	0	0	563	440	
7	0	0	0	0	563	440	
8	0	0	0	0	562	441	
9	0	0	0	0	560	441	
10	0	0	0	0	556	441	
11	0	0	0	0	550	440	
12	0	0	0	0	543	441	
13	0	0	0	0	536	440	
14	0	0	0	0	528	441	
15	0	0	0	0	520	440	
0	0	0	0	0	513	441	
1	0	0	0	0	507	440	
2	0	0	0	0	501	442	
3	0	0	0	0	495	441	
4	0	0	0	0	491	441	
5	0	0	0	0	486	441	
6	0	0	0	0	482	441	
7	0	0	0	0	479	441	
8	0	0	0	0	477	441	
9	0	0	0	0	476	441	
10	0	0	0	0	474	442	
11	0	0	0	0	472	441	
12	0	0	0	0	472	441	
13	0	0	0	0	471	442	
14	0	0	0	0	470	441	
15	0	0	0	0	469	441	
0	0	0	0	0	468	441	
1	0	0	0	0	469	441	
2	0	0	0	0	468	442	
3	0	0	0	0	468	441	
4	0	0	0	0	468	441	
5	0	0	0	0	469	441	
6	0	0	0	0	469	442	
7	0	0	0	0	469	441	
8	0	0	0	0	468	441	
9	0	0	0	0	468	441	
10	0	0	0	0	467	442	
11	0	0	0	0	467	442	
12	0	0	0	0	467	442	
13	0	0	0	0	467	442	
14	0	0	0	0	467	442	
15	0	0	0	0	467	442	
0	0	0	0	0	468	443	
1	0	0	0	0	468	441	
2	0	0	0	0	469	443	
3	0	0	0	0	470	442	
4	0	0	0	0	471	442	
5	0	0	0	0	472	442	
6	0	0	0	0	473	442	
7	0	0	0	0	474	443	
8	0	0	0	0	474	442	
9	0	0	0	0	475	442	
10	0	0	0	0	475	444	
11	0	0	0	0	475	442	
12	0	0	0	0	475	443	
13	0	0	0	0	475	442	
14	0	0	0	0	475	442	
15	0	0	0	0	475	442	
0	0	0	0	0	475	443	
1	0	0	0	0	474	442	
2	0	0	0	0	474	443	
3	0	0	0	0	474	442	
4	0	0	0	0	474	442	
5	0	0	0	0	474	443	
6	0	0	0	0	475	443	
7	0	0	0	0	476	442	
8	0	0	0	0	476	443	
9	0	0	0	0	476	443	
10	0	0	0	0	476	443	
11	0	0	0	0	477	442	
12	0	0	0	0	478	442	
13	0	0	0	0	478	442	
14	0	0	0	0	480	442	
15	0	0	0	0	480	442	
0	0	0	0	0	482	442	
1	0	0	0	0	483	443	
2	0	0	0	0	483	443	
3	0	0	0	0	484	443	
4	0	0	0	0	484	444	
5	0	0	0	0	484	444	
6	0	0	0	0	484	444	
7	0	0	0	0	485	443	
8	0	0	0	0	486	443	
9	0	0	0	0	486	443	
10	0	0	0	0	485	444	
11	0	0	0	0	484	443	
12	0	0	0	0	483	443	
13	0	0	0	0	483	443	
14	0	0	0	0	483	443	
15	0	0	0	0	482	443	
0	0	0	0	0	483	442	
1	0	0	0	0	482	442	
2	0	0	0	0	483	443	
3	0	0	0	0	484	443	
4	0	0	0	0	485	443	
5	0	0	0	0	485	443	
6	0	0	0	0	486	442	
7	0	0	0	0	487	442	
8	0	0	0	0	487	441	
9	0	0	0	0	487	441	
10	0	0	0	0	488	443	
11	0	0	0	0	488	441	
12	0	0	0	0	488	442	
13	0	0	0	0	489	441	
14	0	0	0	0	488	441	
15	0	0	0	0	488	441	
0	0	0	0	0	488	442	
1	0	0	0	0	487	441	
2	0	0	0	0	488	442	
3	0	0	0	0	487	441	
4	0	0	0	0	487	441	
5	0	0	0	0	488	441	
6	0	0	0	0	488	441	
7	0	0	0	0	488	441	
8	0	0	0	0	487	440	
9	0	0	0	0	487	441	
10	0	0	0	0	486	441	
11	0	0	0	0	486	440	
12	0	0	0	0	485	441	
13	0	0	0	0	485	440	
14	0	0	0	0	485	441	
15	0	0	0	0	486	440	
0	0	0	0	0	486	441	
1	0	0	0	0	487	440	
2	0	0	0	0	488	441	
3	0	0	0	0	489	440	
4	0	0	0	0	489	440	
5	0	0	0	0	490	439	
6	0	0	0	0	491	440	
7	0	0	0	0	491	440	
8	0	0	0	0	492	440	
9	0	0	0	0	492	439	
10	0	0	0	0	492	440	
11	0	0	0	0	492	440	
12	0	0	0	0	493	440	
13	0	0	0	0	493	440	
14	0	0	0	0	493	440	
15	0	0	0	0	494	440	
0	0	0	0	0	493	440	
1	0	0	0	0	493	440	
2	0	0	0	0	493	441	
3	0	0	0	0	494	440	
4	0	0	0	0	494	440	
5	0	0	0	0	493	440	
6	0	0	0	0	493	441	
7	0	0	0	0	492	441	
8	0	0	0	0	492	441	
9	0	0	0	0	492	440	
10	0	0	0	0	491	441	
11	0	0	0	0	490	440	
12	0	0	0	0	490	441	
13	0	0	0	0	489	441	
14	0	0	0	0	489	441	
15	0	0	0	0	488	441	
0	0	0	0	0	488	441	
1	0	0	0	0	488	441	
2	0	0	0	0	489	442	
3	0	0	0	0	489	442	
4	0	0	0	0	489	441	
5	0	0	0	0	489	441	
6	0	0	0	0	490	441	
7	0	0	0	0	490	442	
8	0	0	0	0	490	441	
9	0	0	0	0	490	441	
10	0	0	0	0	489	443	
11	0	0	0	0	489	442	
12	0	0	0	0	489	441	
13	0	0	0	0	490	442	
14	0	0	0	0	490	442	
15	0	0	0	0	490	442	
0	0	0	0	0	491	441	
1	0	0	0	0	491	441	
2	0	0	0	0	491	443	
3	0	0	0	0	491	441	
4	0	0	0	0	491	441	
5	0	0	0	0	490	441	
6	0	0	0	0	490	442	
7	0	0	0	0	490	441	
8	0	0	0	0	491	441	
9	0	0	0	0	490	441	
10	0	0	0	0	490	442	
11	0	0	0	0	490	441	
12	0	0	0	0	491	442	
13	0	0	0	0	491	442	
14	0	0	0	0	491	442	
15	0	0	0	0	492	442	
0	0	0	0	0	492	442	
1	0	0	0	0	492	442	
2	0	0	0	0	493	443	
3	0	0	0	0	493	442	
4	0	0	0	0	493	442	
5	0	0	0	0	493	442	
6	0	0	0	0	494	443	
7	0	0	0	0	495	442	
8	0	0	0	0	495	442	
9	0	0	0	0	496	442	
10	0	0	0	0	497	442	
11	0	0	0	0	498	442	
12	0	0	0	0	499	442	
13	0	0	0	0	499	442	
14	0	0	0	0	499	441	
15	0	0	0	0	499	440	
0	0	0	0	0	499	440	
1	0	0	0	0	500	441	
2	0	0	0	0	501	442	
3	0	0	0	0	502	441	
4	0	0	0	0	502	440	
5	0	0	0	0	501	441	
6	0	0	0	0	501	442	
7	0	0	0	0	501	441	
8	0	0	0	0	501	441	
9	0	0	0	0	501	441	
10	0	0	0	0	501	442	
11	0	0	0	0	501	441	
12	0	0	0	0	501	441	
13	0	0	0	0	501	441	
14	0	0	0	0	500	442	
15	0	0	0	0	500	442	
0	0	0	0	0	500	442	
1	0	0	0	0	500	441	
2	0	0	0	0	500	443	
3	0	0	0	0	501	442	
4	0	0	0	0	502	442	
5	0	0	0	0	502	442	
6	0	0	0	0	502	442	
7	0	0	0	0	503	441	
8	0	0	0	0	503	441	
9	0	0	0	0	504	441	
10	0	0	0	0	505	442	
11	0	0	0	0	507	441	
12	0	0	0	0	508	442	
13	0	0	0	0	508	441	
14	0	0	0	0	508	442	
15	0	0	0	0	509	441	
0	0	0	0	0	509	441	
1	0	0	0	0	509	442	
2	0	0	0	0	509	443	
3	0	0	0	0	510	442	
4	0	0	0	0	510	442	
5	0	0	0	0	509	442	
6	0	0	0	0	510	443	
7	0	0	0	0	510	442	
8	0	0	0	0	509	442	
9	0	0	0	0	509	443	
10	0	0	0	0	510	443	
11	0	0	0	0	510	442	
12	0	0	0	0	510	443	
13	0	0	0	0	510	442	
14	0	0	0	0	511	442	
15	0	0	0	0	511	442	
0	0	0	0	0	512	443	
1	0	0	0	0	512	442	
2	0	0	0	0	513	443	
3	0	0	0	0	514	442	
4	0	0	0	0	514	442	
5	0	0	0	0	514	442	
6	0	0	0	0	515	442	
7	0	0	0	0	515	441	
8	0	0	0	0	515	442	
9	0	0	0	0	515	441	
10	0	0	0	0	516	442	
11	0	0	0	0	517	442	
12	0	0	0	0	518	441	
13	0	0	0	0	518	441	
14	0	0	0	0	519	441	
15	0	0	0	0	519	442	
0	0	0	0	0	519	442	
1	0	0	0	0	519	441	
2	0	0	0	0	519	441	
3	0	0	0	0	519	441	
4	0	0	0	0	519	441	
5	0	0	0	0	518	441	
6	0	0	0	0	519	441	
7	0	0	0	0	519	441	
8	0	0	0	0	519	441	
9	0	0	0	0	519	441	
10	0	0	0	0	520	441	
11	0	0	0	0	521	441	
12	0	0	0	0	522	441	
13	0	0	0	0	522	441	
14	0	0	0	0	523	442	
15	0	0	0	0	523	442	
0	0	0	0	0	524	442	
1	0	0	0	0	525	442	
2	0	0	0	0	526	442	
3	0	0	0	0	527	442	
4	0	0	0	0	527	441	
5	0	0	0	0	528	441	
6	0	0	0	0	528	442	
7	0	0	0	0	528	441	
8	0	0	0	0	528	441	
9	0	0	0	0	529	442	
10	0	0	0	0	529	443	
11	0	0	0	0	529	442	
12	0	0	0	0	530	442	
13	0	0	0	0	530	442	
14	0	0	0	0	529	441	
15	0	0	0	0	529	442	
0	0	0	0	0	528	441	
1	0	0	0	0	527	441	
2	0	0	0	0	527	442	
3	0	0	0	0	527	441	
4	0	0	0	0	527	441	
5	0	0	0	0	527	440	
6	0	0	0	0	527	441	
7	0	0	0	0	527	441	
8	0	0	0	0	527	441	
9	0	0	0	0	527	441	
10	0	0	0	0	527	441	
11	0	0	0	0	527	441	
12	0	0	0	0	527	441	
13	0	0	0	0	527	440	
14	0	0	0	0	527	441	
15	0	0	0	0	527	441	
0	0	0	0	0	527	441	
1	0	0	0	0	527	442	
2	0	0	0	0	528	443	
3	0	0	0	0	528	440	
4	0	0	0	0	528	441	
5	0	0	0	0	529	441	
6	0	0	0	0	529	441	
7	0	0	0	0	528	441	
8	0	0	0	0	528	441	
9	0	0	0	0	527	442	
10	0	0	0	0	527	443	
11	0	0	0	0	526	442	
12	0	0	0	0	526	442	
13	0	0	0	0	525	443	
14	0	0	0	0	525	443	
15	0	0	0	0	524	442	
0	0	0	0	0	523	442	
1	0	0	0	0	522	442	
2	0	0	0	0	522	443	
3	0	0	0	0	522	443	
4	0	0	0	0	521	443	
5	0	0	0	0	521	443	
6	0	0	0	0	521	443	
7	0	0	0	0	522	442	
8	0	0	0	0	522	442	
9	0	0	0	0	522	442	
10	0	0	0	0	523	443	
11	0	0	0	0	523	442	
12	0	0	0	0	523	442	
13	0	0	0	0	522	442	
14	0	0	0	0	521	442	
15	0	0	0	0	521	442	
0	0	0	0	0	521	442	
1	0	0	0	0	521	442	
2	0	0	0	0	521	443	
3	0	0	0	0	521	442	
4	0	0	0	0	521	441	
5	0	0	0	0	520	441	
6	0	0	0	0	520	442	
7	0	0	0	0	520	442	
8	0	0	0	0	519	442	
9	0	0	0	0	519	442	
10	0	0	0	0	518	442	
11	0	0	0	0	518	442	
12	0	0	0	0	518	441	
13	0	0	0	0	518	441	
14	0	0	0	0	518	441	
15	0	0	0	0	517	442	
0	0	0	0	0	518	442	
1	0	0	0	0	518	441	
2	0	0	0	0	519	443	
3	0	0	0	0	519	442	
4	0	0	0	0	520	441	
5	0	0	0	0	520	442	
6	0	0	0	0	520	442	
7	0	0	0	0	519	441	
8	0	0	0	0	519	441	
9	0	0	0	0	518	441	
10	0	0	0	0	518	442	
11	0	0	0	0	518	441	
12	0	0	0	0	518	441	
13	0	0	0	0	518	442	
14	0	0	0	0	517	442	
15	0	0	0	0	518	441	
0	0	0	0	0	517	441	
1	0	0	0	0	518	441	
2	0	0	0	0	518	441	
3	0	0	0	0	518	441	
4	0	0	0	0	518	442	
5	0	0	0	0	518	441	
6	0	0	0	0	518	442	
7	0	0	0	0	518	442	
8	0	0	0	0	518	441	
9	0	0	0	0	518	442	
10	0	0	0	0	518	443	
11	0	0	0	0	518	442	
12	0	0	0	0	518	442	
13	0	0	0	0	518	443	
14	0	0	0	0	517	443	
15	0	0	0	0	516	443	
0	0	0	0	0	516	443	
1	0	0	0	0	516	443	
2	0	0	0	0	515	443	
3	0	0	0	0	515	443	
4	0	0	0	0	515	442	
5	0	0	0	0	514	442	
6	0	0	0	0	514	443	
7	0	0	0	0	514	442	
8	0	0	0	0	514	442	
9	0	0	0	0	513	442	
10	0	0	0	0	513	443	
11	0	0	0	0	513	442	
12	0	0	0	0	513	442	
13	0	0	0	0	513	442	
14	0	0	0	0	513	442	
15	0	0	0	0	513	441	
0	0	0	0	0	513	441	
1	0	0	0	0	514	441	
2	0	0	0	0	514	442	
3	0	0	0	0	515	442	
4	0	0	0	0	515	442	
5	0	0	0	0	516	441	
6	0	0	0	0	517	442	
7	0	0	0	0	518	442	
8	0	0	0	0	518	442	
9	0	0	0	0	518	442	
10	0	0	0	0	519	443	
11	0	0	0	0	519	442	
12	0	0	0	0	520	443	
13	0	0	0	0	519	443	
14	0	0	0	0	520	442	
15	0	0	0	0	520	441	
0	0	0	0	0	520	442	
1	0	0	0	0	519	442	
2	0	0	0	0	519	443	
3	0	0	0	0	519	442	
4	0	0	0	0	519	442	
5	0	0	0	0	519	441	
6	0	0	0	0	519	442	
7	0	0	0	0	518	442	
8	0	0	0	0	518	441	
9	0	0	0	0	518	441	
10	0	0	0	0	518	443	
11	0	0	0	0	518	442	
12	0	0	0	0	518	441	
13	0	0	0	0	519	441	
14	0	0	0	0	519	441	
15	0	0	0	0	519	442	
0	0	0	0	0	519	441	
1	0	0	0	0	519	441	
2	0	0	0	0	519	442	
3	0	0	0	0	518	441	
4	0	0	0	0	519	441	
5	0	0	0	0	518	441	
6	0	0	0	0	518	441	
7	0	0	0	0	519	441	
8	0	0	0	0	519	441	
9	0	0	0	0	518	441	
10	0	0	0	0	518	441	
11	0	0	0	0	517	441	
12	0	0	0	0	517	442	
13	0	0	0	0	517	441	
14	0	0	0	0	516	441	
15	0	0	0	0	516	441	
0	0	0	0	0	516	442	
1	0	0	0	0	516	441	
2	0	0	0	0	516	442	
3	0	0	0	0	516	440	
4	0	0	0	0	517	441	
5	0	0	0	0	517	441	
6	0	0	0	0	517	441	
7	0	0	0	0	517	440	
8	0	0	0	0	517	441	
9	0	0	0	0	516	440	
10	0	0	0	0	516	441	
11	0	0	0	0	516	441	
12	0	0	0	0	517	441	
13	0	0	0	0	517	441	
14	0	0	0	0	516	441	
15	0	0	0	0	516	441	
0	0	0	0	0	515	441	
1	0	0	0	0	516	441	
2	0	0	0	0	516	441	
3	0	0	0	0	516	441	
4	0	0	0	0	515	441	
5	0	0	0	0	515	441	
6	0	0	0	0	515	441	
7	0	0	0	0	515	441	
8	0	0	0	0	515	441	
9	0	0	0	0	515	441	
10	0	0	0	0	515	441	
11	0	0	0	0	516	441	
12	0	0	0	0	516	441	
13	0	0	0	0	516	442	
14	0	0	0	0	515	441	
15	0	0	0	0	515	440	
0	0	0	0	0	515	441	
1	0	0	0	0	515	440	
2	0	0	0	0	515	441	
3	0	0	0	0	515	441	
4	0	0	0	0	515	441	
5	0	0	0	0	515	441	
6	0	0	0	0	515	441	
7	0	0	0	0	515	442	
8	0	0	0	0	515	441	
9	0	0	0	0	515	441	
10	0	0	0	0	515	441	
11	0	0	0	0	515	441	
12	0	0	0	0	515	441	
13	0	0	0	0	515	441	
14	0	0	0	0	515	442	
15	0	0	0	0	515	441	
0	0	0	0	0	515	441	
1	0	0	0	0	515	442	
2	0	0	0	0	515	442	
3	0	0	0	0	515	441	
4	0	0	0	0	515	442	
5	0	0	0	0	514	441	
6	0	0	0	0	514	442	
7	0	0	0	0	514	442	
8	0	0	0	0	513	442	
9	0	0	0	0	513	441	
10	0	0	0	0	513	442	
11	0	0	0	0	513	442	
12	0	0	0	0	513	441	
13	0	0	0	0	513	443	
14	0	0	0	0	512	442	
15	0	0	0	0	513	441	
0	0	0	0	0	513	442	
1	0	0	0	0	513	442	
2	0	0	0	0	513	443	
3	0	0	0	0	514	442	
4	0	0	0	0	514	442	
5	0	0	0	0	514	442	
6	0	0	0	0	514	443	
7	0	0	0	0	514	442	
8	0	0	0	0	514	442	
9	0	0	0	0	514	442	
10	0	0	0	0	514	443	
11	0	0	0	0	513	443	
12	0	0	0	0	513	443	
13	0	0	0	0	514	442	
14	0	0	0	0	513	442	
15	0	0	0	0	513	442	
0	0	0	0	0	513	443	
1	0	0	0	0	512	443	
2	0	0	0	0	512	443	
3	0	0	0	0	511	442	
4	0	0	0	0	512	443	
5	0	0	0	0	511	443	
6	0	0	0	0	511	443	
7	0	0	0	0	511	443	
8	0	0	0	0	511	442	
9	0	0	0	0	511	443	
10	0	0	0	0	511	443	
11	0	0	0	0	510	443	
12	0	0	0	0	509	443	
13	0	0	0	0	509	442	
14	0	0	0	0	508	443	
15	0	0	0	0	508	442	
0	0	0	0	0	508	443	
1	0	0	0	0	508	442	
2	0	0	0	0	507	443	
3	0	0	0	0	507	442	
4	0	0	0	0	506	442	
5	0	0	0	0	506	442	
6	0	0	0	0	506	442	
7	0	0	0	0	507	442	
8	0	0	0	0	507	442	
9	0	0	0	0	508	441	
10	0	0	0	0	508	442	
11	0	0	0	0	509	441	
12	0	0	0	0	510	442	
13	0	0	0	0	511	442	
14	0	0	0	0	511	442	
15	0	0	0	0	512	442	
0	0	0	0	0	512	442	
1	0	0	0	0	513	441	
2	0	0	0	0	514	442	
3	0	0	0	0	514	442	
4	0	0	0	0	514	442	
5	0	0	0	0	515	441	
6	0	0	0	0	515	441	
7	0	0	0	0	516	441	
8	0	0	0	0	517	441	
9	0	0	0	0	517	441	
10	0	0	0	0	518	442	
11	0	0	0	0	518	442	
12	0	0	0	0	518	441	
13	0	0	0	0	519	441	
14	0	0	0	0	518	442	
15	0	0	0	0	519	441	
0	0	0	0	0	518	441	
1	0	0	0	0	519	441	
2	0	0	0	0	519	442	
3	0	0	0	0	519	441	
4	0	0	0	0	519	441	
5	0	0	0	0	519	441	
6	0	0	0	0	519	442	
7	0	0	0	0	518	442	
8	0	0	0	0	518	441	
9	0	0	0	0	518	441	
10	0	0	0	0	518	443	
11	0	0	0	0	517	442	
12	0	0	0	0	516	442	
13	0	0	0	0	515	441	
14	0	0	0	0	515	442	
15	0	0	0	0	515	442	
0	0	0	0	0	515	442	
1	0	0	0	0	515	441	
2	0	0	0	0	515	442	
3	0	0	0	0	514	441	
4	0	0	0	0	514	442	
5	0	0	0	0	515	442	
6	0	0	0	0	514	441	
7	0	0	0	0	515	440	
8	0	0	0	0	515	441	
9	0	0	0	0	515	441	
10	0	0	0	0	515	442	
11	0	0	0	0	516	441	
12	0	0	0	0	516	441	
13	0	0	0	0	516	441	
14	0	0	0	0	516	441	
15	0	0	0	0	517	441	
0	0	0	0	0	517	441	
1	0	0	0	0	517	441	
2	0	0	0	0	517	441	
3	0	0	0	0	516	441	
4	0	0	0	0	516	441	
5	0	0	0	0	516	441	
6	0	0	0	0	515	441	
7	0	0	0	0	515	441	
8	0	0	0	0	514	440	
9	0	0	0	0	514	441	
10	0	0	0	0	513	442	
11	0	0	0	0	512	441	
12	0	0	0	0	512	442	
13	0	0	0	0	512	441	
14	0	0	0	0	512	442	
15	0	0	0	0	512	441	
0	0	0	0	0	512	441	
1	0	0	0	0	512	442	
2	0	0	0	0	511	442	
3	0	0	0	0	511	442	
4	0	0	0	0	510	442	
5	0	0	0	0	510	442	
6	0	0	0	0	510	442	
7	0	0	0	0	510	442	
8	0	0	0	0	510	443	
9	0	0	0	0	510	442	
10	0	0	0	0	509	442	
11	0	0	0	0	509	442	
12	0	0	0	0	509	441	
13	0	0	0	0	509	442	
14	0	0	0	0	508	442	
15	0	0	0	0	508	441	
0	0	0	0	0	509	441	
1	0	0	0	0	509	442	
2	0	0	0	0	510	441	
3	0	0	0	0	510	441	
4	0	0	0	0	510	441	
5	0	0	0	0	510	441	
6	0	0	0	0	511	442	
7	0	0	0	0	511	442	
8	0	0	0	0	511	441	
9	0	0	0	0	512	441	
10	0	0	0	0	512	442	
11	0	0	0	0	512	442	
12	0	0	0	0	512	442	
13	0	0	0	0	513	442	
14	0	0	0	0	513	442	
15	0	0	0	0	512	441	
0	0	0	0	0	511	441	
1	0	0	0	0	510	442	
2	0	0	0	0	510	441	
3	0	0	0	0	509	441	
4	0	0	0	0	508	442	
5	0	0	0	0	507	441	
6	0	0	0	0	506	441	
7	0	0	0	0	506	442	
8	0	0	0	0	505	442	
9	0	0	0	0	506	442	
10	0	0	0	0	505	442	
11	0	0	0	0	506	442	
12	0	0	0	0	506	442	
13	0	0	0	0	506	442	
14	0	0	0	0	507	441	
15	0	0	0	0	507	442	
0	0	0	0	0	508	442	
1	0	0	0	0	508	442	
2	0	0	0	0	508	442	
3	0	0	0	0	509	442	
4	0	0	0	0	508	442	
5	0	0	0	0	508	442	
6	0	0	0	0	508	442	
7	0	0	0	0	508	442	
8	0	0	0	0	508	442	
9	0	0	0	0	507	442	
10	0	0	0	0	507	443	
11	0	0	0	0	506	442	
12	0	0	0	0	507	442	
13	0	0	0	0	507	442	
14	0	0	0	0	507	442	
15	0	0	0	0	507	443	
0	0	0	0	0	507	443	
1	0	0	0	0	507	442	
2	0	0	0	0	507	443	
3	0	0	0	0	506	443	
4	0	0	0	0	505	442	
5	0	0	0	0	504	442	
6	0	0	0	0	503	442	
7	0	0	0	0	501	443	
8	0	0	0	0	498	442	
9	0	0	0	0	495	443	
10	0	0	0	0	491	443	
11	0	0	0	0	486	442	
12	0	0	0	0	479	443	
13	0	0	0	0	472	442	
14	0	0	0	0	466	442	
15	0	0	0	0	459	442	
0	0	0	0	0	451	441	
1	0	0	0	0	446	442	
2	0	0	0	0	441	442	
3	0	0	0	0	437	441	
4	0	0	0	0	435	441	
5	0	0	0	0	433	441	
6	0	0	0	0	433	441	
7	0	0	0	0	432	441	
8	0	0	0	0	432	441	
9	0	0	0	0	431	442	
10	0	0	0	0	432	442	
11	0	0	0	0	435	441	
12	0	0	0	0	439	441	
13	0	0	0	0	444	441	
14	0	0	0	0	450	441	
15	0	0	0	0	458	442	
0	0	0	0	0	469	442	
1	0	0	0	0	480	442	
2	0	0	0	0	492	443	
3	0	0	0	0	503	442	
4	0	0	0	0	514	442	
5	0	0	0	0	527	442	
6	0	0	0	0	537	442	
7	0	0	0	0	547	443	
8	0	0	0	0	556	442	
9	0	0	0	0	564	442	
10	0	0	0	0	574	443	
11	0	0	0	0	588	441	
12	0	0	0	0	604	442	
13	0	0	0	0	622	442	
14	0	0	0	0	640	443	
15	0	0	0	0	656	442	
0	0	0	0	0	670	442	
1	0	0	0	0	682	441	
2	0	0	0	0	691	442	
3	0	0	0	0	696	443	
4	0	0	0	0	697	441	
5	0	0	0	0	699	441	
6	0	0	0	0	698	442	
7	0	0	0	0	697	442	
8	0	0	0	0	695	441	
9	0	0	0	0	692	442	
10	0	0	0	0	686	442	
11	0	0	0	0	676	442	
12	0	0	0	0	664	442	
13	0	0	0	0	650	441	
14	0	0	0	0	636	441	
15	0	0	0	0	622	441	
0	0	0	0	0	611	441	
1	0	0	0	0	604	441	
2	0	0	0	0	598	442	
3	0	0	0	0	594	441	
4	0	0	0	0	592	441	
5	0	0	0	0	591	442	
6	0	0	0	0	589	442	
7	0	0	0	0	587	442	
8	0	0	0	0	583	441	
9	0	0	0	0	579	441	
10	0	0	0	0	574	442	
11	0	0	0	0	567	442	
12	0	0	0	0	560	442	
13	0	0	0	0	552	441	
14	0	0	0	0	544	442	
15	0	0	0	0	536	442	
0	0	0	0	0	527	442	
1	0	0	0	0	519	442	
2	0	0	0	0	511	442	
3	0	0	0	0	503	441	
4	0	0	0	0	497	441	
5	0	0	0	0	490	442	
6	0	0	0	0	485	442	
7	0	0	0	0	480	442	
8	0	0	0	0	477	442	
9	0	0	0	0	475	442	
10	0	0	0	0	472	442	
11	0	0	0	0	470	442	
12	0	0	0	0	467	441	
13	0	0	0	0	466	442	
14	0	0	0	0	466	442	
15	0	0	0	0	465	442	
0	0	0	0	0	463	441	
1	0	0	0	0	463	442	
2	0	0	0	0	462	442	
3	0	0	0	0	461	442	
4	0	0	0	0	461	442	
5	0	0	0	0	460	443	
6	0	0	0	0	460	443	
7	0	0	0	0	460	442	
8	0	0	0	0	460	442	
9	0	0	0	0	461	442	
10	0	0	0	0	461	443	
11	0	0	0	0	462	442	
12	0	0	0	0	462	441	
13	0	0	0	0	462	441	
14	0	0	0	0	463	441	
15	0	0	0	0	464	441	
0	0	0	0	0	465	441	
1	0	0	0	0	466	441	
2	0	0	0	0	467	443	
3	0	0	0	0	467	441	
4	0	0	0	0	467	442	
5	0	0	0	0	467	441	
6	0	0	0	0	467	441	
7	0	0	0	0	467	442	
8	0	0	0	0	467	442	
9	0	0	0	0	468	442	
10	0	0	0	0	468	443	
11	0	0	0	0	469	442	
12	0	0	0	0	470	442	
13	0	0	0	0	470	442	
14	0	0	0	0	470	442	
15	0	0	0	0	470	442	
0	0	0	0	0	470	441	
1	0	0	0	0	469	442	
2	0	0	0	0	469	443	
3	0	0	0	0	469	441	
4	0	0	0	0	470	441	
5	0	0	0	0	471	441	
6	0	0	0	0	472	442	
7	0	0	0	0	472	442	
8	0	0	0	0	473	441	
9	0	0	0	0	474	441	
10	0	0	0	0	474	441	
11	0	0	0	0	475	440	
12	0	0	0	0	475	441	
13	0	0	0	0	475	441	
14	0	0	0	0	476	441	
15	0	0	0	0	476	441	
0	0	0	0	0	476	441	
1	0	0	0	0	476	441	
2	0	0	0	0	477	443	
3	0	0	0	0	476	441	
4	0	0	0	0	477	441	
5	0	0	0	0	478	442	
6	0	0	0	0	478	442	
7	0	0	0	0	478	441	
8	0	0	0	0	478	441	
9	0	0	0	0	478	441	
10	0	0	0	0	479	442	
11	0	0	0	0	478	441	
12	0	0	0	0	478	441	
13	0	0	0	0	478	441	
14	0	0	0	0	477	442	
15	0	0	0	0	478	441	
0	0	0	0	0	477	441	
1	0	0	0	0	478	441	
2	0	0	0	0	478	443	
3	0	0	0	0	479	442	
4	0	0	0	0	479	442	
5	0	0	0	0	480	442	
6	0	0	0	0	480	443	
7	0	0	0	0	480	442	
8	0	0	0	0	480	441	
9	0	0	0	0	480	442	
10	0	0	0	0	480	443	
11	0	0	0	0	480	442	
12	0	0	0	0	480	442	
13	0	0	0	0	480	442	
14	0	0	0	0	481	442	
15	0	0	0	0	481	441	
0	0	0	0	0	482	441	
1	0	0	0	0	482	441	
2	0	0	0	0	483	442	
3	0	0	0	0	483	441	
4	0	0	0	0	484	441	
5	0	0	0	0	485	441	
6	0	0	0	0	485	441	
7	0	0	0	0	485	441	
8	0	0	0	0	485	443	
9	0	0	0	0	486	442	
10	0	0	0	0	486	443	
11	0	0	0	0	486	442	
12	0	0	0	0	486	442	
13	0	0	0	0	485	442	
14	0	0	0	0	484	443	
15	0	0	0	0	484	442	
0	0	0	0	0	484	443	
1	0	0	0	0	483	442	
2	0	0	0	0	484	443	
3	0	0	0	0	484	442	
4	0	0	0	0	485	442	
5	0	0	0	0	485	442	
6	0	0	0	0	485	442	
7	0	0	0	0	486	442	
8	0	0	0	0	487	442	
9	0	0	0	0	488	442	
10	0	0	0	0	488	443	
11	0	0	0	0	488	441	
12	0	0	0	0	488	441	
13	0	0	0	0	488	441	
14	0	0	0	0	487	442	
15	0	0	0	0	487	441	
0	0	0	0	0	487	441	
1	0	0	0	0	487	441	
2	0	0	0	0	488	441	
3	0	0	0	0	488	441	
4	0	0	0	0	487	441	
5	0	0	0	0	487	441	
6	0	0	0	0	487	441	
7	0	0	0	0	487	441	
8	0	0	0	0	487	441	
9	0	0	0	0	488	441	
10	0	0	0	0	488	441	
11	0	0	0	0	487	442	
12	0	0	0	0	488	441	
13	0	0	0	0	487	441	
14	0	0	0	0	488	442	
15	0	0	0	0	488	442	
0	0	0	0	0	489	442	
1	0	0	0	0	488	442	
2	0	0	0	0	488	443	
3	0	0	0	0	488	442	
4	0	0	0	0	488	442	
5	0	0	0	0	489	442	
6	0	0	0	0	488	442	
7	0	0	0	0	488	441	
8	0	0	0	0	488	442	
9	0	0	0	0	488	442	
10	0	0	0	0	488	443	
11	0	0	0	0	489	441	
12	0	0	0	0	490	442	
13	0	0	0	0	490	442	
14	0	0	0	0	490	442	
15	0	0	0	0	490	442	
0	0	0	0	0	489	442	
1	0	0	0	0	489	441	
2	0	0	0	0	490	442	
3	0	0	0	0	490	442	
4	0	0	0	0	490	442	
5	0	0	0	0	490	441	
6	0	0	0	0	490	442	
7	0	0	0	0	491	443	
8	0	0	0	0	491	443	
9	0	0	0	0	491	442	
10	0	0	0	0	491	443	
11	0	0	0	0	491	442	
12	0	0	0	0	491	443	
13	0	0	0	0	491	441	
14	0	0	0	0	491	442	
15	0	0	0	0	492	442	
0	0	0	0	0	492	442	
1	0	0	0	0	492	441	
2	0	0	0	0	492	442	
3	0	0	0	0	493	442	
4	0	0	0	0	492	441	
5	0	0	0	0	492	442	
6	0	0	0	0	492	442	
7	0	0	0	0	492	441	
8	0	0	0	0	492	442	
9	0	0	0	0	492	442	
10	0	0	0	0	492	443	
11	0	0	0	0	492	442	
12	0	0	0	0	492	442	
13	0	0	0	0	492	442	
14	0	0	0	0	492	442	
15	0	0	0	0	493	443	
0	0	0	0	0	493	443	
1	0	0	0	0	494	443	
2	0	0	0	0	494	443	
3	0	0	0	0	495	442	
4	0	0	0	0	495	442	
5	0	0	0	0	495	442	
6	0	0	0	0	496	442	
7	0	0	0	0	496	442	
8	0	0	0	0	497	441	
9	0	0	0	0	497	442	
10	0	0	0	0	497	442	
11	0	0	0	0	497	441	
12	0	0	0	0	498	442	
13	0	0	0	0	498	442	
14	0	0	0	0	499	441	
15	0	0	0	0	499	441	
0	0	0	0	0	500	441	
1	0	0	0	0	500	441	
2	0	0	0	0	500	442	
3	0	0	0	0	500	441	
4	0	0	0	0	500	441	
5	0	0	0	0	501	441	
6	0	0	0	0	501	442	
7	0	0	0	0	501	442	
8	0	0	0	0	501	442	
9	0	0	0	0	502	441	
10	0	0	0	0	502	441	
11	0	0	0	0	502	441	
12	0	0	0	0	502	441	
13	0	0	0	0	502	442	
14	0	0	0	0	502	442	
15	0	0	0	0	501	442	
0	0	0	0	0	501	442	
1	0	0	0	0	501	442	
2	0	0	0	0	501	443	
3	0	0	0	0	501	442	
4	0	0	0	0	502	443	
5	0	0	0	0	502	442	
6	0	0	0	0	504	442	
7	0	0	0	0	504	442	
8	0	0	0	0	505	442	
9	0	0	0	0	505	442	
10	0	0	0	0	506	443	
11	0	0	0	0	506	441	
12	0	0	0	0	507	442	
13	0	0	0	0	508	441	
14	0	0	0	0	508	441	
15	0	0	0	0	509	441	
0	0	0	0	0	510	441	
1	0	0	0	0	511	440	
2	0	0	0	0	512	441	
3	0	0	0	0	512	440	
4	0	0	0	0	512	440	
5	0	0	0	0	512	440	
6	0	0	0	0	512	440	
7	0	0	0	0	513	440	
8	0	0	0	0	513	440	
9	0	0	0	0	514	440	
10	0	0	0	0	514	440	
11	0	0	0	0	515	439	
12	0	0	0	0	515	440	
13	0	0	0	0	516	440	
14	0	0	0	0	516	440	
15	0	0	0	0	516	442	
0	0	0	0	0	516	441	
1	0	0	0	0	518	442	
2	0	0	0	0	519	443	
3	0	0	0	0	520	443	
4	0	0	0	0	520	444	
5	0	0	0	0	521	444	
6	0	0	0	0	521	444	
7	0	0	0	0	522	444	
8	0	0	0	0	523	445	
9	0	0	0	0	523	446	
10	0	0	0	0	523	446	
11	0	0	0	0	523	446	
12	0	0	0	0	523	447	
13	0	0	0	0	524	447	
14	0	0	0	0	523	447	
15	0	0	0	0	523	447	
0	0	0	0	0	524	447	
1	0	0	0	0	524	446	
2	0	0	0	0	525	447	
3	0	0	0	0	525	446	
4	0	0	0	0	526	445	
5	0	0	0	0	526	445	
6	0	0	0	0	526	445	
7	0	0	0	0	525	444	
8	0	0	0	0	526	443	
9	0	0	0	0	525	443	
10	0	0	0	0	525	443	
11	0	0	0	0	525	441	
12	0	0	0	0	524	441	
13	0	0	0	0	524	441	
14	0	0	0	0	524	440	
15	0	0	0	0	524	439	
0	0	0	0	0	524	439	
1	0	0	0	0	524	439	
2	0	0	0	0	524	439	
3	0	0	0	0	524	438	
4	0	0	0	0	524	438	
5	0	0	0	0	524	438	
6	0	0	0	0	524	438	
7	0	0	0	0	525	437	
8	0	0	0	0	525	437	
9	0	0	0	0	525	437	
10	0	0	0	0	524	438	
11	0	0	0	0	524	438	
12	0	0	0	0	524	437	
13	0	0	0	0	524	438	
14	0	0	0	0	524	438	
15	0	0	0	0	523	438	
0	0	0	0	0	523	439	
1	0	0	0	0	523	439	
2	0	0	0	0	523	440	
3	0	0	0	0	524	440	
4	0	0	0	0	524	440	
5	0	0	0	0	525	440	
6	0	0	0	0	526	441	
7	0	0	0	0	526	441	
8	0	0	0	0	527	441	
9	0	0	0	0	527	441	
10	0	0	0	0	526	443	
11	0	0	0	0	526	443	
12	0	0	0	0	526	443	
13	0	0	0	0	526	443	
14	0	0	0	0	526	444	
15	0	0	0	0	526	444	
0	0	0	0	0	525	444	
1	0	0	0	0	525	444	
2	0	0	0	0	525	444	
3	0	0	0	0	525	444	
4	0	0	0	0	525	444	
5	0	0	0	0	524	444	
6	0	0	0	0	523	445	
7	0	0	0	0	523	444	
8	0	0	0	0	522	444	
9	0	0	0	0	522	444	
10	0	0	0	0	521	445	
11	0	0	0	0	522	444	
12	0	0	0	0	523	444	
13	0	0	0	0	523	443	
14	0	0	0	0	524	444	
15	0	0	0	0	524	443	
0	0	0	0	0	524	443	
1	0	0	0	0	524	442	
2	0	0	0	0	524	443	
3	0	0	0	0	523	441	
4	0	0	0	0	523	441	
5	0	0	0	0	523	441	
6	0	0	0	0	521	441	
7	0	0	0	0	521	441	
8	0	0	0	0	521	441	
9	0	0	0	0	520	440	
10	0	0	0	0	520	441	
11	0	0	0	0	521	440	
12	0	0	0	0	520	440	
13	0	0	0	0	521	440	
14	0	0	0	0	520	441	
15	0	0	0	0	520	441	
0	0	0	0	0	520	440	
1	0	0	0	0	519	440	
2	0	0	0	0	519	441	
3	0	0	0	0	518	441	
4	0	0	0	0	518	441	
5	0	0	0	0	517	441	
6	0	0	0	0	517	441	
7	0	0	0	0	516	443	
8	0	0	0	0	514	442	
9	0	0	0	0	514	442	
10	0	0	0	0	514	444	
11	0	0	0	0	514	443	
12	0	0	0	0	514	443	
13	0	0	0	0	515	444	
14	0	0	0	0	516	444	
15	0	0	0	0	516	444	
0	0	0	0	0	516	444	
1	0	0	0	0	517	444	
2	0	0	0	0	517	445	
3	0	0	0	0	517	444	
4	0	0	0	0	517	444	
5	0	0	0	0	518	444	
6	0	0	0	0	518	445	
7	0	0	0	0	518	444	
8	0	0	0	0	518	444	
9	0	0	0	0	518	444	
10	0	0	0	0	518	443	
11	0	0	0	0	517	443	
12	0	0	0	0	517	442	
13	0	0	0	0	517	441	
14	0	0	0	0	516	441	
15	0	0	0	0	515	441	
0	0	0	0	0	516	441	
1	0	0	0	0	516	440	
2	0	0	0	0	517	440	
3	0	0	0	0	517	440	
4	0	0	0	0	516	440	
5	0	0	0	0	517	440	
6	0	0	0	0	518	440	
7	0	0	0	0	518	439	
8	0	0	0	0	518	439	
9	0	0	0	0	518	439	
10	0	0	0	0	519	439	
11	0	0	0	0	518	439	
12	0	0	0	0	518	438	
13	0	0	0	0	518	439	
14	0	0	0	0	518	440	
15	0	0	0	0	518	439	
0	0	0	0	0	517	440	
1	0	0	0	0	517	440	
2	0	0	0	0	517	440	
3	0	0	0	0	516	440	
4	0	0	0	0	516	440	
5	0	0	0	0	516	440	
6	0	0	0	0	515	441	
7	0	0	0	0	515	441	
8	0	0	0	0	515	441	
9	0	0	0	0	515	442	
10	0	0	0	0	514	442	
11	0	0	0	0	514	442	
12	0	0	0	0	515	443	
13	0	0	0	0	514	443	
14	0	0	0	0	515	444	
15	0	0	0	0	515	444	
0	0	0	0	0	515	444	
1	0	0	0	0	515	444	
2	0	0	0	0	515	444	
3	0	0	0	0	515	444	
4	0	0	0	0	515	444	
5	0	0	0	0	515	444	
6	0	0	0	0	515	445	
7	0	0	0	0	515	443	
8	0	0	0	0	516	444	
9	0	0	0	0	516	444	
10	0	0	0	0	516	444	
11	0	0	0	0	516	443	
12	0	0	0	0	517	443	
13	0	0	0	0	517	444	
14	0	0	0	0	518	443	
15	0	0	0	0	518	444	
0	0	0	0	0	518	443	
1	0	0	0	0	518	443	
2	0	0	0	0	517	444	
3	0	0	0	0	517	442	
4	0	0	0	0	517	443	
5	0	0	0	0	518	443	
6	0	0	0	0	518	443	
7	0	0	0	0	518	443	
8	0	0	0	0	518	441	
9	0	0	0	0	518	442	
10	0	0	0	0	517	442	
11	0	0	0	0	518	442	
12	0	0	0	0	518	442	
13	0	0	0	0	518	442	
14	0	0	0	0	518	442	
15	0	0	0	0	517	441	
0	0	0	0	0	517	442	
1	0	0	0	0	518	441	
2	0	0	0	0	519	442	
3	0	0	0	0	519	441	
4	0	0	0	0	520	441	
5	0	0	0	0	520	441	
6	0	0	0	0	520	442	
7	0	0	0	0	519	441	
8	0	0	0	0	520	441	
9	0	0	0	0	520	441	
10	0	0	0	0	519	441	
11	0	0	0	0	519	441	
12	0	0	0	0	519	441	
13	0	0	0	0	519	441	
14	0	0	0	0	519	441	
15	0	0	0	0	519	440	
0	0	0	0	0	519	441	
1	0	0	0	0	519	441	
2	0	0	0	0	519	442	
3	0	0	0	0	519	441	
4	0	0	0	0	519	440	
5	0	0	0	0	518	442	
6	0	0	0	0	518	441	
7	0	0	0	0	518	441	
8	0	0	0	0	518	441	
9	0	0	0	0	519	441	
10	0	0	0	0	520	442	
11	0	0	0	0	519	441	
12	0	0	0	0	520	441	
13	0	0	0	0	520	441	
14	0	0	0	0	520	441	
15	0	0	0	0	521	442	
0	0	0	0	0	522	441	
1	0	0	0	0	523	442	
2	0	0	0	0	523	441	
3	0	0	0	0	523	441	
4	0	0	0	0	523	442	
5	0	0	0	0	523	441	
6	0	0	0	0	524	442	
7	0	0	0	0	523	441	
8	0	0	0	0	523	441	
9	0	0	0	0	523	441	
10	0	0	0	0	522	441	
11	0	0	0	0	521	441	
12	0	0	0	0	520	441	
13	0	0	0	0	519	441	
14	0	0	0	0	519	441	
15	0	0	0	0	518	440	
0	0	0	0	0	517	440	
1	0	0	0	0	517	441	
2	0	0	0	0	517	441	
3	0	0	0	0	517	441	
4	0	0	0	0	517	441	
5	0	0	0	0	517	441	
6	0	0	0	0	517	441	
7	0	0	0	0	517	441	
8	0	0	0	0	517	441	
9	0	0	0	0	518	440	
10	0	0	0	0	518	443	
11	0	0	0	0	518	442	
12	0	0	0	0	518	441	
13	0	0	0	0	517	441	
14	0	0	0	0	516	443	
15	0	0	0	0	516	442	
0	0	0	0	0	516	442	
1	0	0	0	0	516	442	
2	0	0	0	0	516	443	
3	0	0	0	0	515	443	
4	0	0	0	0	515	443	
5	0	0	0	0	515	442	
6	0	0	0	0	515	442	
7	0	0	0	0	515	442	
8	0	0	0	0	515	442	
9	0	0	0	0	515	442	
10	0	0	0	0	515	443	
11	0	0	0	0	515	442	
12	0	0	0	0	515	442	
13	0	0	0	0	516	441	
14	0	0	0	0	516	442	
15	0	0	0	0	516	441	
0	0	0	0	0	516	441	
1	0	0	0	0	516	441	
2	0	0	0	0	516	441	
3	0	0	0	0	516	441	
4	0	0	0	0	516	441	
5	0	0	0	0	515	441	
6	0	0	0	0	516	441	
7	0	0	0	0	516	441	
8	0	0	0	0	516	441	
9	0	0	0	0	515	441	
10	0	0	0	0	515	441	
11	0	0	0	0	515	441	
12	0	0	0	0	514	441	
13	0	0	0	0	513	441	
14	0	0	0	0	513	442	
15	0	0	0	0	512	440	
0	0	0	0	0	512	441	
1	0	0	0	0	511	441	
2	0	0	0	0	511	441	
3	0	0	0	0	511	441	
4	0	0	0	0	510	441	
5	0	0	0	0	510	441	
6	0	0	0	0	510	442	
7	0	0	0	0	510	441	
8	0	0	0	0	510	441	
9	0	0	0	0	509	441	
10	0	0	0	0	510	442	
11	0	0	0	0	511	441	
12	0	0	0	0	511	441	
13	0	0	0	0	511	442	
14	0	0	0	0	512	442	
15	0	0	0	0	512	442	
0	0	0	0	0	512	441	
1	0	0	0	0	512	441	
2	0	0	0	0	511	442	
3	0	0	0	0	511	441	
4	0	0	0	0	511	441	
5	0	0	0	0	510	441	
6	0	0	0	0	510	443	
7	0	0	0	0	509	441	
8	0	0	0	0	509	441	
9	0	0	0	0	509	442	
10	0	0	0	0	509	441	
11	0	0	0	0	509	442	
12	0	0	0	0	510	442	
13	0	0	0	0	510	442	
14	0	0	0	0	510	442	
15	0	0	0	0	511	441	
0	0	0	0	0	512	442	
1	0	0	0	0	513	442	
2	0	0	0	0	514	443	
3	0	0	0	0	514	442	
4	0	0	0	0	514	442	
5	0	0	0	0	515	442	
6	0	0	0	0	515	443	
7	0	0	0	0	516	442	
8	0	0	0	0	516	443	
9	0	0	0	0	517	442	
10	0	0	0	0	518	443	
11	0	0	0	0	519	442	
12	0	0	0	0	519	442	
13	0	0	0	0	520	442	
14	0	0	0	0	520	442	
15	0	0	0	0	521	442	
0	0	0	0	0	521	441	
1	0	0	0	0	521	441	
2	0	0	0	0	521	442	
3	0	0	0	0	521	443	
4	0	0	0	0	522	441	
5	0	0	0	0	522	441	
6	0	0	0	0	522	441	
7	0	0	0	0	523	441	
8	0	0	0	0	522	442	
9	0	0	0	0	521	441	
10	0	0	0	0	521	442	
11	0	0	0	0	521	441	
12	0	0	0	0	521	441	
13	0	0	0	0	521	441	
14	0	0	0	0	521	442	
15	0	0	0	0	521	441	
0	0	0	0	0	520	442	
1	0	0	0	0	521	441	
2	0	0	0	0	521	442	
3	0	0	0	0	521	442	
4	0	0	0	0	522	442	
5	0	0	0	0	522	443	
6	0	0	0	0	522	443	
7	0	0	0	0	522	442	
8	0	0	0	0	521	442	
9	0	0	0	0	521	442	
10	0	0	0	0	520	443	
11	0	0	0	0	520	443	
12	0	0	0	0	520	443	
13	0	0	0	0	519	443	
14	0	0	0	0	519	442	
15	0	0	0	0	519	442	
0	0	0	0	0	518	442	
1	0	0	0	0	518	442	
2	0	0	0	0	517	443	
3	0	0	0	0	517	442	
4	0	0	0	0	517	442	
5	0	0	0	0	516	443	
6	0	0	0	0	515	442	
7	0	0	0	0	515	442	
8	0	0	0	0	514	441	
9	0	0	0	0	513	441	
10	0	0	0	0	512	443	
11	0	0	0	0	512	441	
12	0	0	0	0	512	441	
13	0	0	0	0	512	441	
14	0	0	0	0	512	442	
15	0	0	0	0	511	441	
0	0	0	0	0	511	442	
1	0	0	0	0	510	441	
2	0	0	0	0	510	442	
3	0	0	0	0	510	442	
4	0	0	0	0	510	442	
5	0	0	0	0	511	441	
6	0	0	0	0	512	441	
7	0	0	0	0	512	441	
8	0	0	0	0	513	440	
9	0	0	0	0	513	441	
10	0	0	0	0	514	442	
11	0	0	0	0	514	441	
12	0	0	0	0	514	441	
13	0	0	0	0	513	442	
14	0	0	0	0	513	442	
15	0	0	0	0	512	441	
0	0	0	0	0	512	441	
1	0	0	0	0	511	441	
2	0	0	0	0	511	442	
3	0	0	0	0	511	441	
4	0	0	0	0	511	441	
5	0	0	0	0	510	441	
6	0	0	0	0	510	441	
7	0	0	0	0	510	441	
8	0	0	0	0	510	441	
9	0	0	0	0	509	441	
10	0	0	0	0	510	442	
11	0	0	0	0	510	441	
12	0	0	0	0	510	441	
13	0	0	0	0	509	442	
14	0	0	0	0	508	442	
15	0	0	0	0	508	442	
0	0	0	0	0	509	442	
1	0	0	0	0	509	442	
2	0	0	0	0	510	443	
3	0	0	0	0	510	442	
4	0	0	0	0	509	442	
5	0	0	0	0	509	442	
6	0	0	0	0	509	442	
7	0	0	0	0	509	441	
8	0	0	0	0	508	441	
9	0	0	0	0	507	441	
10	0	0	0	0	507	442	
11	0	0	0	0	507	442	
12	0	0	0	0	506	442	
13	0	0	0	0	506	441	
14	0	0	0	0	507	442	
15	0	0	0	0	507	442	
0	0	0	0	0	507	441	
1	0	0	0	0	506	442	
2	0	0	0	0	506	443	
3	0	0	0	0	506	442	
4	0	0	0	0	505	443	
5	0	0	0	0	504	441	
6	0	0	0	0	503	443	
7	0	0	0	0	503	442	
8	0	0	0	0	502	441	
9	0	0	0	0	501	441	
10	0	0	0	0	500	441	
11	0	0	0	0	500	441	
12	0	0	0	0	499	441	
13	0	0	0	0	498	441	
14	0	0	0	0	498	441	
15	0	0	0	0	498	441	
0	0	0	0	0	499	441	
1	0	0	0	0	500	441	
2	0	0	0	0	500	441	
3	0	0	0	0	501	441	
4	0	0	0	0	501	442	
5	0	0	0	0	501	442	
6	0	0	0	0	500	443	
7	0	0	0	0	500	442	
8	0	0	0	0	499	441	
9	0	0	0	0	498	441	
10	0	0	0	0	496	443	
11	0	0	0	0	494	442	
12	0	0	0	0	492	442	
13	0	0	0	0	488	442	
14	0	0	0	0	483	442	
15	0	0	0	0	476	442	
0	0	0	0	0	470	441	
1	0	0	0	0	463	441	
2	0	0	0	0	455	442	
3	0	0	0	0	449	441	
4	0	0	0	0	443	441	
5	0	0	0	0	439	442	
6	0	0	0	0	435	442	
7	0	0	0	0	433	441	
8	0	0	0	0	432	441	
9	0	0	0	0	432	442	
10	0	0	0	0	431	442	
11	0	0	0	0	430	442	
12	0	0	0	0	431	442	
13	0	0	0	0	432	442	
14	0	0	0	0	435	442	
15	0	0	0	0	439	442	
0	0	0	0	0	444	441	
1	0	0	0	0	450	442	
2	0	0	0	0	457	443	
3	0	0	0	0	468	442	
4	0	0	0	0	480	442	
5	0	0	0	0	492	442	
6	0	0	0	0	503	442	
7	0	0	0	0	515	442	
8	0	0	0	0	528	442	
9	0	0	0	0	540	442	
10	0	0	0	0	550	443	
11	0	0	0	0	561	442	
12	0	0	0	0	571	441	
13	0	0	0	0	581	442	
14	0	0	0	0	595	442	
15	0	0	0	0	611	442	
0	0	0	0	0	629	441	
1	0	0	0	0	647	441	
2	0	0	0	0	664	442	
3	0	0	0	0	678	441	
4	0	0	0	0	689	441	
5	0	0	0	0	697	442	
6	0	0	0	0	702	442	
7	0	0	0	0	704	441	
8	0	0	0	0	703	442	
9	0	0	0	0	702	442	
10	0	0	0	0	699	443	
11	0	0	0	0	696	441	
12	0	0	0	0	691	441	
13	0	0	0	0	684	441	
14	0	0	0	0	673	441	
15	0	0	0	0	661	441	
0	0	0	0	0	645	441	
1	0	0	0	0	630	442	
2	0	0	0	0	615	442	
3	0	0	0	0	603	442	
4	0	0	0	0	595	442	
5	0	0	0	0	590	442	
6	0	0	0	0	587	442	
7	0	0	0	0	583	441	
8	0	0	0	0	582	442	
9	0	0	0	0	581	441	
10	0	0	0	0	580	442	
11	0	0	0	0	577	441	
12	0	0	0	0	573	441	
13	0	0	0	0	568	442	
14	0	0	0	0	561	442	
15	0	0	0	0	554	441	
0	0	0	0	0	547	441	
1	0	0	0	0	538	441	
2	0	0	0	0	529	443	
3	0	0	0	0	521	441	
4	0	0	0	0	513	441	
5	0	0	0	0	506	441	
6	0	0	0	0	499	441	
7	0	0	0	0	493	440	
8	0	0	0	0	488	440	
9	0	0	0	0	483	440	
10	0	0	0	0	479	442	
11	0	0	0	0	475	441	
12	0	0	0	0	472	441	
13	0	0	0	0	469	441	
14	0	0	0	0	467	441	
15	0	0	0	0	465	441	
0	0	0	0	0	463	441	
1	0	0	0	0	461	441	
2	0	0	0	0	459	442	
3	0	0	0	0	459	441	
4	0	0	0	0	458	441	
5	0	0	0	0	456	440	
6	0	0	0	0	456	441	
7	0	0	0	0	455	441	
8	0	0	0	0	455	441	
9	0	0	0	0	454	440	
10	0	0	0	0	453	441	
11	0	0	0	0	453	441	
12	0	0	0	0	452	442	
13	0	0	0	0	453	442	
14	0	0	0	0	454	442	
15	0	0	0	0	455	442	
0	0	0	0	0	455	441	
1	0	0	0	0	455	441	
2	0	0	0	0	455	442	
3	0	0	0	0	456	441	
4	0	0	0	0	457	441	
5	0	0	0	0	457	441	
6	0	0	0	0	458	442	
7	0	0	0	0	459	441	
8	0	0	0	0	459	441	
9	0	0	0	0	459	441	
10	0	0	0	0	460	442	
11	0	0	0	0	461	441	
12	0	0	0	0	462	440	
13	0	0	0	0	463	441	
14	0	0	0	0	463	440	
15	0	0	0	0	464	441	
0	0	0	0	0	465	441	
1	0	0	0	0	465	441	
2	0	0	0	0	466	442	
3	0	0	0	0	466	442	
4	0	0	0	0	467	442	
5	0	0	0	0	468	442	
6	0	0	0	0	469	442	
7	0	0	0	0	468	442	
8	0	0	0	0	468	443	
9	0	0	0	0	468	442	
10	0	0	0	0	468	443	
11	0	0	0	0	469	441	
12	0	0	0	0	469	442	
13	0	0	0	0	470	442	
14	0	0	0	0	471	442	
15	0	0	0	0	472	441	
0	0	0	0	0	473	441	
1	0	0	0	0	473	441	
2	0	0	0	0	474	443	
3	0	0	0	0	474	441	
4	0	0	0	0	475	441	
5	0	0	0	0	475	441	
6	0	0	0	0	476	442	
7	0	0	0	0	476	441	
8	0	0	0	0	476	441	
9	0	0	0	0	477	441	
10	0	0	0	0	476	442	
11	0	0	0	0	477	442	
12	0	0	0	0	476	441	
13	0	0	0	0	476	441	
14	0	0	0	0	477	443	
15	0	0	0	0	477	441	
0	0	0	0	0	477	442	
1	0	0	0	0	477	441	
2	0	0	0	0	477	442	
3	0	0	0	0	478	442	
4	0	0	0	0	479	441	
5	0	0	0	0	478	442	
6	0	0	0	0	479	442	
7	0	0	0	0	479	441	
8	0	0	0	0	479	441	
9	0	0	0	0	479	441	
10	0	0	0	0	480	442	
11	0	0	0	0	480	441	
12	0	0	0	0	480	441	
13	0	0	0	0	480	441	
14	0	0	0	0	480	441	
15	0	0	0	0	480	441	
0	0	0	0	0	481	441	
1	0	0	0	0	481	441	
2	0	0	0	0	481	441	
3	0	0	0	0	481	441	
4	0	0	0	0	481	441	
5	0	0	0	0	481	441	
6	0	0	0	0	480	440	
7	0	0	0	0	480	440	
8	0	0	0	0	480	441	
9	0	0	0	0	481	441	
10	0	0	0	0	482	442	
11	0	0	0	0	483	441	
12	0	0	0	0	483	442	
13	0	0	0	0	483	441	
14	0	0	0	0	484	441	
15	0	0	0	0	484	441	
0	0	0	0	0	484	441	
1	0	0	0	0	484	441	
2	0	0	0	0	484	441	
3	0	0	0	0	483	441	
4	0	0	0	0	483	441	
5	0	0	0	0	484	442	
6	0	0	0	0	484	442	
7	0	0	0	0	485	441	
8	0	0	0	0	485	441	
9	0	0	0	0	485	441	
10	0	0	0	0	486	441	
11	0	0	0	0	486	441	
12	0	0	0	0	487	441	
13	0	0	0	0	487	441	
14	0	0	0	0	487	441	
15	0	0	0	0	488	441	
0	0	0	0	0	488	441	
1	0	0	0	0	488	441	
2	0	0	0	0	487	442	
3	0	0	0	0	487	441	
4	0	0	0	0	487	441	
5	0	0	0	0	487	442	
6	0	0	0	0	487	441	
7	0	0	0	0	487	441	
8	0	0	0	0	487	442	
9	0	0	0	0	487	442	
10	0	0	0	0	487	443	
11	0	0	0	0	487	441	
12	0	0	0	0	487	442	
13	0	0	0	0	486	443	
14	0	0	0	0	486	443	
15	0	0	0	0	487	443	
0	0	0	0	0	487	442	
1	0	0	0	0	487	443	
2	0	0	0	0	487	443	
3	0	0	0	0	487	442	
4	0	0	0	0	487	442	
5	0	0	0	0	487	441	
6	0	0	0	0	486	442	
7	0	0	0	0	485	441	
8	0	0	0	0	484	441	
9	0	0	0	0	483	441	
10	0	0	0	0	484	442	
11	0	0	0	0	485	441	
12	0	0	0	0	486	442	
13	0	0	0	0	486	441	
14	0	0	0	0	486	442	
15	0	0	0	0	485	441	
0	0	0	0	0	485	441	
1	0	0	0	0	485	442	
2	0	0	0	0	485	442	
3	0	0	0	0	485	441	
4	0	0	0	0	485	441	
5	0	0	0	0	485	441	
6	0	0	0	0	484	442	
7	0	0	0	0	484	441	
8	0	0	0	0	484	441	
9	0	0	0	0	484	441	
10	0	0	0	0	484	442	
11	0	0	0	0	484	442	
12	0	0	0	0	484	441	
13	0	0	0	0	485	441	
14	0	0	0	0	486	441	
15	0	0	0	0	486	442	
0	0	0	0	0	487	442	
1	0	0	0	0	487	442	
2	0	0	0	0	487	443	
3	0	0	0	0	487	441	
4	0	0	0	0	488	442	
5	0	0	0	0	488	442	
6	0	0	0	0	489	442	
7	0	0	0	0	489	441	
8	0	0	0	0	489	442	
9	0	0	0	0	490	441	
10	0	0	0	0	490	442	
11	0	0	0	0	490	441	
12	0	0	0	0	491	441	
13	0	0	0	0	492	442	
14	0	0	0	0	493	441	
15	0	0	0	0	494	441	
0	0	0	0	0	494	441	
1	0	0	0	0	494	441	
2	0	0	0	0	495	443	
3	0	0	0	0	495	442	
4	0	0	0	0	496	442	
5	0	0	0	0	496	442	
6	0	0	0	0	496	443	
7	0	0	0	0	496	443	
8	0	0	0	0	496	442	
9	0	0	0	0	496	443	
10	0	0	0	0	497	443	
11	0	0	0	0	498	442	
12	0	0	0	0	498	443	
13	0	0	0	0	499	442	
14	0	0	0	0	499	443	
15	0	0	0	0	500	443	
0	0	0	0	0	500	442	
1	0	0	0	0	500	442	
2	0	0	0	0	500	443	
3	0	0	0	0	500	442	
4	0	0	0	0	501	442	
5	0	0	0	0	502	442	
6	0	0	0	0	503	443	
7	0	0	0	0	503	442	
8	0	0	0	0	503	441	
9	0	0	0	0	503	441	
10	0	0	0	0	503	442	
11	0	0	0	0	504	441	
12	0	0	0	0	504	441	
13	0	0	0	0	504	441	
14	0	0	0	0	504	442	
15	0	0	0	0	504	441	
0	0	0	0	0	504	441	
1	0	0	0	0	504	442	
2	0	0	0	0	504	442	
3	0	0	0	0	504	442	
4	0	0	0	0	504	442	
5	0	0	0	0	504	442	
6	0	0	0	0	505	443	
7	0	0	0	0	505	442	
8	0	0	0	0	506	441	
9	0	0	0	0	505	442	
10	0	0	0	0	504	443	
11	0	0	0	0	505	442	
12	0	0	0	0	505	441	
13	0	0	0	0	505	441	
14	0	0	0	0	505	441	
15	0	0	0	0	505	441	
0	0	0	0	0	506	441	
1	0	0	0	0	507	441	
2	0	0	0	0	507	441	
3	0	0	0	0	507	440	
4	0	0	0	0	508	441	
5	0	0	0	0	510	442	
6	0	0	0	0	510	442	
7	0	0	0	0	511	442	
8	0	0	0	0	512	441	
9	0	0	0	0	512	442	
10	0	0	0	0	512	443	
11	0	0	0	0	513	442	
12	0	0	0	0	515	441	
13	0	0	0	0	515	442	
14	0	0	0	0	515	442	
15	0	0	0	0	516	443	
0	0	0	0	0	517	442	
1	0	0	0	0	517	442	
2	0	0	0	0	517	443	
3	0	0	0	0	518	441	
4	0	0	0	0	519	442	
5	0	0	0	0	519	441	
6	0	0	0	0	519	442	
7	0	0	0	0	519	442	
8	0	0	0	0	519	442	
9	0	0	0	0	520	443	
10	0	0	0	0	520	442	
11	0	0	0	0	520	442	
12	0	0	0	0	521	442	
13	0	0	0	0	521	441	
14	0	0	0	0	521	442	
15	0	0	0	0	522	442	
0	0	0	0	0	523	441	
1	0	0	0	0	524	441	
2	0	0	0	0	524	443	
3	0	0	0	0	524	442	
4	0	0	0	0	524	441	
5	0	0	0	0	524	442	
6	0	0	0	0	524	441	
7	0	0	0	0	524	441	
8	0	0	0	0	525	441	
9	0	0	0	0	525	441	
10	0	0	0	0	525	442	
11	0	0	0	0	525	441	
12	0	0	0	0	525	441	
13	0	0	0	0	525	441	
14	0	0	0	0	526	441	
15	0	0	0	0	526	441	
0	0	0	0	0	525	441	
1	0	0	0	0	524	441	
2	0	0	0	0	525	441	
3	0	0	0	0	524	441	
4	0	0	0	0	524	441	
5	0	0	0	0	524	440	
6	0	0	0	0	523	441	
7	0	0	0	0	523	441	
8	0	0	0	0	523	441	
9	0	0	0	0	522	441	
10	0	0	0	0	523	442	
11	0	0	0	0	523	441	
12	0	0	0	0	523	441	
13	0	0	0	0	524	441	
14	0	0	0	0	524	441	
15	0	0	0	0	523	441	
0	0	0	0	0	523	440	
1	0	0	0	0	524	441	
2	0	0	0	0	524	441	
3	0	0	0	0	524	441	
4	0	0	0	0	524	440	
5	0	0	0	0	524	441	
6	0	0	0	0	524	442	
7	0	0	0	0	524	441	
8	0	0	0	0	524	442	
9	0	0	0	0	523	442	
10	0	0	0	0	522	442	
11	0	0	0	0	521	441	
12	0	0	0	0	522	441	
13	0	0	0	0	522	441	
14	0	0	0	0	522	442	
15	0	0	0	0	522	441	
0	0	0	0	0	522	441	
1	0	0	0	0	522	442	
2	0	0	0	0	523	442	
3	0	0	0	0	524	442	
4	0	0	0	0	523	441	
5	0	0	0	0	522	442	
6	0	0	0	0	521	442	
7	0	0	0	0	521	442	
8	0	0	0	0	521	441	
9	0	0	0	0	521	441	
10	0	0	0	0	521	443	
11	0	0	0	0	520	442	
12	0	0	0	0	520	442	
13	0	0	0	0	520	442	
14	0	0	0	0	519	442	
15	0	0	0	0	519	442	
0	0	0	0	0	519	442	
1	0	0	0	0	519	442	
2	0	0	0	0	518	443	
3	0	0	0	0	518	442	
4	0	0	0	0	518	443	
5	0	0	0	0	517	442	
6	0	0	0	0	517	442	
7	0	0	0	0	518	442	
8	0	0	0	0	518	442	
9	0	0	0	0	518	442	
10	0	0	0	0	519	443	
11	0	0	0	0	519	443	
12	0	0	0	0	519	442	
13	0	0	0	0	519	443	
14	0	0	0	0	519	444	
15	0	0	0	0	518	443	
0	0	0	0	0	518	443	
1	0	0	0	0	518	442	
2	0	0	0	0	517	443	
3	0	0	0	0	517	442	
4	0	0	0	0	517	442	
5	0	0	0	0	517	443	
6	0	0	0	0	517	443	
7	0	0	0	0	517	442	
8	0	0	0	0	517	441	
9	0	0	0	0	517	441	
10	0	0	0	0	517	442	
11	0	0	0	0	516	441	
12	0	0	0	0	516	441	
13	0	0	0	0	515	441	
14	0	0	0	0	515	442	
15	0	0	0	0	515	441	
0	0	0	0	0	515	441	
1	0	0	0	0	515	441	
2	0	0	0	0	515	442	
3	0	0	0	0	516	441	
4	0	0	0	0	516	442	
5	0	0	0	0	517	442	
6	0	0	0	0	517	442	
7	0	0	0	0	518	441	
8	0	0	0	0	517	441	
9	0	0	0	0	517	441	
10	0	0	0	0	517	442	
11	0	0	0	0	517	441	
12	0	0	0	0	518	442	
13	0	0	0	0	517	441	
14	0	0	0	0	517	442	
15	0	0	0	0	518	442	
0	0	0	0	0	518	441	
1	0	0	0	0	518	442	
2	0	0	0	0	518	442	
3	0	0	0	0	518	441	
4	0	0	0	0	517	441	
5	0	0	0	0	518	441	
6	0	0	0	0	516	442	
7	0	0	0	0	516	441	
8	0	0	0	0	515	441	
9	0	0	0	0	514	441	
10	0	0	0	0	513	442	
11	0	0	0	0	512	441	
12	0	0	0	0	512	441	
13	0	0	0	0	512	442	
14	0	0	0	0	512	442	
15	0	0	0	0	513	441	
0	0	0	0	0	513	441	
1	0	0	0	0	513	441	
2	0	0	0	0	514	442	
3	0	0	0	0	514	441	
4	0	0	0	0	515	441	
5	0	0	0	0	515	441	
6	0	0	0	0	516	441	
7	0	0	0	0	516	441	
8	0	0	0	0	517	441	
9	0	0	0	0	518	441	
10	0	0	0	0	518	442	
11	0	0	0	0	518	441	
12	0	0	0	0	519	441	
13	0	0	0	0	519	441	
14	0	0	0	0	519	441	
15	0	0	0	0	519	441	
0	0	0	0	0	519	441	
1	0	0	0	0	518	441	
2	0	0	0	0	518	441	
3	0	0	0	0	518	441	
